0	3
1	6
2	8
3	11
4	12
5	13
6	15
7	16
8	17
9	18
10	19
11	20
12	21
13	22
14	23
15	24
16	25
17	26
18	27
19	28
20	31
21	32
22	34
23	35
24	37
25	39
26	41
27	42
28	43
29	44
30	45
31	47
32	50
33	51
34	54
35	57
36	58
37	59
38	60
39	61
40	62
41	63
42	64
43	65
44	67
45	69
46	70
47	71
48	72
49	73
50	74
51	75
52	76
53	77
54	78
55	79
56	82
57	83
58	84
59	88
60	90
61	91
62	92
63	93
64	94
65	95
66	97
67	98
68	99
69	100
70	101
71	102
72	104
73	105
74	106
75	107
76	108
77	109
78	111
79	112
80	113
81	114
82	115
83	116
84	117
85	118
86	119
87	120
88	121
89	122
90	125
91	126
92	127
93	129
94	131
95	132
96	133
97	138
98	147
99	148
100	149
101	150
102	152
103	153
104	154
105	155
106	156
107	157
108	158
109	161
110	162
111	163
112	164
113	165
114	166
115	167
116	168
117	169
118	170
119	171
120	173
121	174
122	176
123	177
124	178
125	179
126	180
127	181
128	182
129	183
130	184
131	186
132	187
133	188
134	189
135	191
136	192
137	193
138	194
139	195
140	198
141	200
142	201
143	202
144	203
145	204
146	205
147	206
148	207
149	208
150	211
151	214
152	215
153	216
154	218
155	220
156	222
157	223
158	224
159	225
160	226
161	227
162	228
163	229
164	230
165	231
166	232
167	233
168	234
169	235
170	236
171	237
172	238
173	239
174	240
175	241
176	245
177	248
178	249
179	250
180	251
181	252
182	253
183	254
184	255
185	257
186	258
187	259
188	260
189	263
190	265
191	267
192	268
193	270
194	271
195	272
196	273
197	274
198	275
199	278
200	279
201	280
202	282
203	283
204	284
205	285
206	286
207	287
208	288
209	289
210	290
211	291
212	292
213	293
214	294
215	295
216	296
217	297
218	298
219	299
220	300
221	301
222	302
223	304
224	305
225	306
226	307
227	308
228	311
229	312
230	313
231	314
232	316
233	317
234	318
235	319
236	320
237	321
238	322
239	324
240	326
241	328
242	330
243	331
244	333
245	335
246	336
247	337
248	339
249	340
250	341
251	342
252	344
253	345
254	347
255	349
256	350
257	353
258	354
259	355
260	356
261	357
262	358
263	359
264	360
265	362
266	363
267	366
268	367
269	368
270	370
271	372
272	373
273	376
274	379
275	380
276	381
277	382
278	383
279	384
280	387
281	388
282	389
283	390
284	391
285	393
286	394
287	395
288	397
289	398
290	399
291	403
292	405
293	406
294	407
295	408
296	409
297	410
298	412
299	416
300	417
301	420
302	422
303	423
304	424
305	425
306	426
307	427
308	428
309	429
310	431
311	432
312	433
313	434
314	436
315	437
316	439
317	440
318	445
319	446
320	447
321	448
322	449
323	450
324	451
325	452
326	453
327	454
328	460
329	463
330	464
331	465
332	466
333	468
334	469
335	470
336	471
337	472
338	474
339	475
340	481
341	482
342	483
343	485
344	486
345	487
346	488
347	489
348	491
349	492
350	494
351	495
352	496
353	498
354	499
355	500
356	501
357	504
358	505
359	507
360	509
361	511
362	513
363	515
364	516
365	517
366	520
367	522
368	523
369	524
370	525
371	526
372	527
373	530
374	533
375	534
376	536
377	537
378	539
379	540
380	541
381	545
382	547
383	548
384	549
385	550
386	552
387	554
388	555
389	556
390	559
391	560
392	561
393	566
394	567
395	568
396	569
397	570
398	571
399	572
400	573
401	574
402	575
403	576
404	577
405	578
406	580
407	581
408	583
409	584
410	585
411	587
412	588
413	590
414	592
415	593
416	594
417	595
418	596
419	598
420	599
421	600
422	601
423	602
424	604
425	605
426	606
427	609
428	610
429	611
430	613
431	614
432	615
433	616
434	617
435	618
436	619
437	620
438	621
439	622
440	623
441	624
442	626
443	627
444	629
445	631
446	632
447	633
448	635
449	636
450	638
451	639
452	640
453	641
454	644
455	647
456	648
457	650
458	651
459	652
460	653
461	655
462	656
463	658
464	659
465	660
466	661
467	663
468	664
469	667
470	668
471	669
472	670
473	677
474	678
475	679
476	680
477	681
478	682
479	683
480	684
481	685
482	686
483	687
484	688
485	689
486	690
487	691
488	692
489	693
490	694
491	695
492	696
493	698
494	700
495	701
496	702
497	703
498	704
499	705
500	706
501	708
502	709
503	711
504	714
505	715
506	716
507	717
508	718
509	719
510	720
511	721
512	723
513	724
514	725
515	726
516	728
517	729
518	731
519	732
520	733
521	734
522	735
523	737
524	738
525	739
526	740
527	741
528	742
529	743
530	744
531	746
532	747
533	748
534	750
535	751
536	752
537	753
538	754
539	757
540	758
541	759
542	761
543	762
544	766
545	768
546	770
547	771
548	772
549	773
550	774
551	775
552	776
553	779
554	780
555	781
556	782
557	783
558	785
559	788
560	789
561	793
562	794
563	796
564	797
565	798
566	799
567	800
568	801
569	802
570	806
571	807
572	808
573	809
574	811
575	812
576	813
577	814
578	815
579	816
580	817
581	818
582	819
583	821
584	822
585	824
586	827
587	829
588	830
589	831
590	833
591	835
592	836
593	837
594	838
595	839
596	840
597	841
598	842
599	844
600	845
601	846
602	847
603	848
604	851
605	852
606	853
607	854
608	855
609	857
610	858
611	859
612	860
613	862
614	863
615	864
616	865
617	866
618	867
619	869
620	870
621	872
622	873
623	875
624	876
625	877
626	878
627	882
628	883
629	885
630	886
631	888
632	890
633	892
634	893
635	896
636	898
637	900
638	901
639	902
640	904
641	906
642	907
643	908
644	909
645	910
646	912
647	914
648	916
649	918
650	919
651	921
652	922
653	923
654	924
655	925
656	927
657	928
658	929
659	930
660	931
661	933
662	934
663	935
664	937
665	938
666	939
667	941
668	943
669	944
670	945
671	949
672	951
673	952
674	953
675	954
676	956
677	957
678	958
679	959
680	960
681	961
682	963
683	964
684	965
685	966
686	967
687	968
688	969
689	970
690	971
691	972
692	973
693	975
694	979
695	980
696	981
697	982
698	983
699	984
700	987
701	988
702	989
703	990
704	991
705	992
706	993
707	994
708	995
709	996
710	997
711	998
712	1000
713	1001
714	1002
715	1004
716	1005
717	1007
718	1008
719	1009
720	1010
721	1012
722	1013
723	1016
724	1017
725	1018
726	1019
727	1020
728	1021
729	1022
730	1023
731	1024
732	1025
733	1026
734	1027
735	1028
736	1029
737	1030
738	1032
739	1033
740	1034
741	1035
742	1038
743	1039
744	1040
745	1042
746	1043
747	1044
748	1045
749	1047
750	1048
751	1049
752	1050
753	1051
754	1052
755	1053
756	1055
757	1057
758	1058
759	1059
760	1061
761	1062
762	1063
763	1065
764	1066
765	1068
766	1069
767	1071
768	1072
769	1073
770	1074
771	1075
772	1076
773	1077
774	1079
775	1081
776	1082
777	1083
778	1084
779	1085
780	1086
781	1087
782	1088
783	1090
784	1091
785	1094
786	1095
787	1096
788	1097
789	1098
790	1100
791	1101
792	1102
793	1104
794	1106
795	1107
796	1108
797	1109
798	1110
799	1111
800	1112
801	1113
802	1116
803	1117
804	1118
805	1119
806	1120
807	1123
808	1124
809	1125
810	1126
811	1127
812	1128
813	1130
814	1132
815	1133
816	1134
817	1136
818	1137
819	1138
820	1139
821	1140
822	1142
823	1143
824	1144
825	1147
826	1148
827	1149
828	1150
829	1151
830	1152
831	1153
832	1154
833	1155
834	1156
835	1157
836	1158
837	1159
838	1160
839	1161
840	1162
841	1163
842	1164
843	1165
844	1167
845	1168
846	1169
847	1170
848	1171
849	1172
850	1173
851	1174
852	1178
853	1179
854	1180
855	1181
856	1182
857	1183
858	1184
859	1185
860	1187
861	1188
862	1189
863	1190
864	1193
865	1194
866	1195
867	1196
868	1197
869	1198
870	1199
871	1201
872	1202
873	1203
874	1204
875	1206
876	1207
877	1209
878	1212
879	1216
880	1217
881	1219
882	1220
883	1221
884	1222
885	1223
886	1224
887	1225
888	1226
889	1228
890	1233
891	1234
892	1235
893	1238
894	1239
895	1241
896	1242
897	1243
898	1244
899	1245
900	1247
901	1248
902	1249
903	1250
904	1251
905	1252
906	1253
907	1255
908	1256
909	1257
910	1258
911	1259
912	1261
913	1262
914	1263
915	1264
916	1265
917	1266
918	1269
919	1271
920	1272
921	1273
922	1274
923	1275
924	1276
925	1279
926	1280
927	1281
928	1283
929	1284
930	1285
931	1286
932	1288
933	1289
934	1292
935	1293
936	1296
937	1297
938	1298
939	1299
940	1300
941	1301
942	1303
943	1304
944	1305
945	1306
946	1307
947	1309
948	1311
949	1312
950	1313
951	1314
952	1315
953	1320
954	1321
955	1322
956	1323
957	1325
958	1326
959	1327
960	1328
961	1329
962	1330
963	1331
964	1332
965	1333
966	1336
967	1339
968	1340
969	1342
970	1344
971	1345
972	1347
973	1348
974	1349
975	1350
976	1353
977	1354
978	1355
979	1357
980	1358
981	1359
982	1361
983	1362
984	1363
985	1365
986	1367
987	1368
988	1369
989	1373
990	1375
991	1377
992	1380
993	1383
994	1384
995	1385
996	1387
997	1390
998	1391
999	1393
1000	1394
1001	1395
1002	1397
1003	1399
1004	1400
1005	1401
1006	1402
1007	1403
1008	1404
1009	1405
1010	1406
1011	1408
1012	1410
1013	1411
1014	1412
1015	1413
1016	1415
1017	1416
1018	1417
1019	1419
1020	1420
1021	1423
1022	1424
1023	1425
1024	1426
1025	1427
1026	1428
1027	1429
1028	1430
1029	1432
1030	1434
1031	1435
1032	1436
1033	1438
1034	1439
1035	1440
1036	1441
1037	1442
1038	1443
1039	1444
1040	1445
1041	1446
1042	1447
1043	1449
1044	1450
1045	1451
1046	1452
1047	1453
1048	1454
1049	1455
1050	1456
1051	1457
1052	1458
1053	1459
1054	1460
1055	1461
1056	1462
1057	1465
1058	1467
1059	1469
1060	1470
1061	1471
1062	1472
1063	1473
1064	1474
1065	1475
1066	1478
1067	1482
1068	1483
1069	1484
1070	1485
1071	1486
1072	1487
1073	1488
1074	1489
1075	1490
1076	1491
1077	1493
1078	1494
1079	1495
1080	1497
1081	1498
1082	1499
1083	1501
1084	1502
1085	1504
1086	1505
1087	1506
1088	1507
1089	1508
1090	1509
1091	1510
1092	1512
1093	1513
1094	1514
1095	1515
1096	1516
1097	1518
1098	1519
1099	1522
1100	1525
1101	1528
1102	1529
1103	1530
1104	1531
1105	1532
1106	1533
1107	1534
1108	1535
1109	1536
1110	1538
1111	1539
1112	1540
1113	1541
1114	1542
1115	1543
1116	1545
1117	1547
1118	1548
1119	1549
1120	1550
1121	1551
1122	1552
1123	1553
1124	1554
1125	1555
1126	1557
1127	1558
1128	1559
1129	1560
1130	1561
1131	1564
1132	1565
1133	1566
1134	1567
1135	1575
1136	1576
1137	1577
1138	1578
1139	1580
1140	1581
1141	1582
1142	1583
1143	1585
1144	1586
1145	1587
1146	1590
1147	1591
1148	1593
1149	1594
1150	1596
1151	1597
1152	1598
1153	1599
1154	1600
1155	1601
1156	1602
1157	1604
1158	1605
1159	1606
1160	1607
1161	1608
1162	1609
1163	1612
1164	1613
1165	1614
1166	1615
1167	1617
1168	1618
1169	1619
1170	1620
1171	1621
1172	1622
1173	1623
1174	1624
1175	1625
1176	1627
1177	1630
1178	1632
1179	1634
1180	1635
1181	1636
1182	1638
1183	1640
1184	1641
1185	1642
1186	1643
1187	1644
1188	1645
1189	1646
1190	1648
1191	1649
1192	1650
1193	1651
1194	1652
1195	1653
1196	1654
1197	1655
1198	1658
1199	1660
1200	1662
1201	1664
1202	1665
1203	1667
1204	1669
1205	1670
1206	1672
1207	1673
1208	1674
1209	1675
1210	1676
1211	1678
1212	1679
1213	1680
1214	1681
1215	1682
1216	1684
1217	1685
1218	1686
1219	1688
1220	1689
1221	1691
1222	1692
1223	1693
1224	1694
1225	1695
1226	1696
1227	1697
1228	1698
1229	1702
1230	1703
1231	1704
1232	1705
1233	1706
1234	1707
1235	1708
1236	1709
1237	1710
1238	1711
1239	1713
1240	1714
1241	1716
1242	1717
1243	1718
1244	1725
1245	1726
1246	1728
1247	1729
1248	1732
1249	1733
1250	1734
1251	1735
1252	1738
1253	1739
1254	1740
1255	1742
1256	1743
1257	1744
1258	1745
1259	1746
1260	1749
1261	1750
1262	1752
1263	1753
1264	1754
1265	1755
1266	1757
1267	1758
1268	1760
1269	1761
1270	1764
1271	1765
1272	1767
1273	1768
1274	1771
1275	1772
1276	1774
1277	1775
1278	1776
1279	1777
1280	1778
1281	1779
1282	1780
1283	1782
1284	1783
1285	1784
1286	1785
1287	1786
1288	1787
1289	1789
1290	1790
1291	1791
1292	1794
1293	1795
1294	1796
1295	1797
1296	1800
1297	1801
1298	1803
1299	1804
1300	1805
1301	1807
1302	1808
1303	1809
1304	1810
1305	1811
1306	1812
1307	1813
1308	1814
1309	1815
1310	1817
1311	1819
1312	1820
1313	1821
1314	1822
1315	1823
1316	1824
1317	1825
1318	1826
1319	1828
1320	1829
1321	1830
1322	1832
1323	1833
1324	1834
1325	1836
1326	1837
1327	1840
1328	1841
1329	1842
1330	1844
1331	1848
1332	1849
1333	1851
1334	1852
1335	1853
1336	1854
1337	1856
1338	1858
1339	1861
1340	1862
1341	1863
1342	1864
1343	1865
1344	1866
1345	1867
1346	1868
1347	1869
1348	1870
1349	1871
1350	1872
1351	1874
1352	1875
1353	1877
1354	1879
1355	1881
1356	1882
1357	1883
1358	1884
1359	1885
1360	1886
1361	1887
1362	1888
1363	1890
1364	1891
1365	1894
1366	1897
1367	1898
1368	1899
1369	1902
1370	1903
1371	1905
1372	1906
1373	1907
1374	1908
1375	1909
1376	1910
1377	1911
1378	1915
1379	1919
1380	1920
1381	1921
1382	1923
1383	1924
1384	1925
1385	1927
1386	1931
1387	1932
1388	1933
1389	1935
1390	1936
1391	1937
1392	1939
1393	1941
1394	1943
1395	1944
1396	1945
1397	1946
1398	1947
1399	1948
1400	1952
1401	1953
1402	1954
1403	1955
1404	1956
1405	1957
1406	1958
1407	1959
1408	1960
1409	1961
1410	1962
1411	1964
1412	1966
1413	1967
1414	1968
1415	1972
1416	1973
1417	1974
1418	1976
1419	1977
1420	1979
1421	1980
1422	1981
1423	1982
1424	1983
1425	1985
1426	1988
1427	1989
1428	1990
1429	1991
1430	1992
1431	1994
1432	1995
1433	1997
1434	1998
1435	1999
1436	2001
1437	2002
1438	2004
1439	2005
1440	2006
1441	2008
1442	2009
1443	2010
1444	2011
1445	2014
1446	2017
1447	2018
1448	2019
1449	2020
1450	2021
1451	2022
1452	2023
1453	2024
1454	2025
1455	2026
1456	2027
1457	2030
1458	2031
1459	2033
1460	2034
1461	2035
1462	2039
1463	2040
1464	2041
1465	2042
1466	2043
1467	2044
1468	2045
1469	2046
1470	2048
1471	2049
1472	2050
1473	2051
1474	2053
1475	2054
1476	2058
1477	2059
1478	2060
1479	2061
1480	2062
1481	2063
1482	2064
1483	2066
1484	2067
1485	2068
1486	2071
1487	2074
1488	2075
1489	2076
1490	2077
1491	2081
1492	2082
1493	2083
1494	2084
1495	2086
1496	2087
1497	2088
1498	2089
1499	2092
1500	2093
1501	2094
1502	2095
1503	2096
1504	2098
1505	2099
1506	2100
1507	2101
1508	2102
1509	2105
1510	2106
1511	2107
1512	2109
1513	2110
1514	2111
1515	2114
1516	2115
1517	2117
1518	2119
1519	2120
1520	2121
1521	2123
1522	2124
1523	2125
1524	2126
1525	2128
1526	2130
1527	2131
1528	2133
1529	2134
1530	2135
1531	2136
1532	2137
1533	2138
1534	2142
1535	2143
1536	2145
1537	2147
1538	2148
1539	2149
1540	2151
1541	2153
1542	2154
1543	2155
1544	2156
1545	2157
1546	2158
1547	2159
1548	2160
1549	2161
1550	2164
1551	2166
1552	2167
1553	2168
1554	2169
1555	2171
1556	2172
1557	2173
1558	2174
1559	2175
1560	2176
1561	2177
1562	2178
1563	2179
1564	2184
1565	2185
1566	2186
1567	2187
1568	2188
1569	2192
1570	2193
1571	2194
1572	2196
1573	2197
1574	2198
1575	2200
1576	2201
1577	2202
1578	2204
1579	2207
1580	2209
1581	2210
1582	2211
1583	2212
1584	2213
1585	2214
1586	2215
1587	2216
1588	2218
1589	2219
1590	2222
1591	2223
1592	2224
1593	2225
1594	2226
1595	2227
1596	2228
1597	2229
1598	2230
1599	2231
1600	2233
1601	2234
1602	2235
1603	2236
1604	2237
1605	2238
1606	2241
1607	2242
1608	2243
1609	2244
1610	2245
1611	2248
1612	2249
1613	2250
1614	2253
1615	2255
1616	2256
1617	2257
1618	2258
1619	2259
1620	2261
1621	2262
1622	2263
1623	2264
1624	2265
1625	2266
1626	2267
1627	2268
1628	2269
1629	2270
1630	2271
1631	2272
1632	2277
1633	2279
1634	2280
1635	2281
1636	2283
1637	2284
1638	2285
1639	2286
1640	2287
1641	2288
1642	2290
1643	2291
1644	2292
1645	2293
1646	2294
1647	2296
1648	2299
1649	2300
1650	2301
1651	2302
1652	2303
1653	2304
1654	2305
1655	2308
1656	2309
1657	2310
1658	2312
1659	2314
1660	2315
1661	2316
1662	2317
1663	2318
1664	2320
1665	2322
1666	2324
1667	2327
1668	2328
1669	2329
1670	2330
1671	2331
1672	2332
1673	2333
1674	2335
1675	2336
1676	2337
1677	2338
1678	2339
1679	2340
1680	2341
1681	2342
1682	2343
1683	2344
1684	2345
1685	2347
1686	2348
1687	2349
1688	2353
1689	2354
1690	2355
1691	2356
1692	2358
1693	2359
1694	2360
1695	2361
1696	2362
1697	2363
1698	2366
1699	2367
1700	2368
1701	2369
1702	2371
1703	2373
1704	2374
1705	2375
1706	2377
1707	2378
1708	2379
1709	2380
1710	2381
1711	2382
1712	2383
1713	2384
1714	2385
1715	2386
1716	2387
1717	2388
1718	2389
1719	2390
1720	2391
1721	2392
1722	2394
1723	2395
1724	2398
1725	2399
1726	2400
1727	2401
1728	2402
1729	2404
1730	2405
1731	2406
1732	2407
1733	2409
1734	2410
1735	2412
1736	2415
1737	2416
1738	2417
1739	2419
1740	2421
1741	2422
1742	2423
1743	2424
1744	2425
1745	2427
1746	2428
1747	2432
1748	2433
1749	2434
1750	2435
1751	2436
1752	2437
1753	2442
1754	2443
1755	2444
1756	2446
1757	2447
1758	2448
1759	2449
1760	2450
1761	2451
1762	2452
1763	2453
1764	2454
1765	2455
1766	2458
1767	2459
1768	2460
1769	2461
1770	2463
1771	2464
1772	2465
1773	2468
1774	2470
1775	2471
1776	2472
1777	2473
1778	2475
1779	2476
1780	2477
1781	2478
1782	2479
1783	2480
1784	2481
1785	2482
1786	2483
1787	2484
1788	2486
1789	2487
1790	2488
1791	2489
1792	2490
1793	2491
1794	2492
1795	2493
1796	2494
1797	2495
1798	2496
1799	2497
1800	2498
1801	2501
1802	2502
1803	2503
1804	2504
1805	2505
1806	2507
1807	2508
1808	2510
1809	2512
1810	2513
1811	2514
1812	2515
1813	2516
1814	2518
1815	2519
1816	2520
1817	2522
1818	2523
1819	2524
1820	2525
1821	2526
1822	2527
1823	2528
1824	2530
1825	2532
1826	2533
1827	2535
1828	2536
1829	2540
1830	2541
1831	2542
1832	2543
1833	2544
1834	2545
1835	2546
1836	2547
1837	2548
1838	2551
1839	2552
1840	2553
1841	2554
1842	2555
1843	2557
1844	2558
1845	2561
1846	2562
1847	2563
1848	2564
1849	2565
1850	2569
1851	2570
1852	2571
1853	2572
1854	2573
1855	2574
1856	2575
1857	2576
1858	2577
1859	2578
1860	2579
1861	2580
1862	2581
1863	2582
1864	2583
1865	2585
1866	2587
1867	2589
1868	2591
1869	2592
1870	2593
1871	2595
1872	2596
1873	2597
1874	2598
1875	2599
1876	2600
1877	2601
1878	2602
1879	2603
1880	2604
1881	2605
1882	2606
1883	2608
1884	2609
1885	2610
1886	2611
1887	2612
1888	2613
1889	2614
1890	2615
1891	2616
1892	2618
1893	2619
1894	2620
1895	2621
1896	2622
1897	2623
1898	2624
1899	2625
1900	2627
1901	2628
1902	2629
1903	2630
1904	2631
1905	2632
1906	2635
1907	2636
1908	2637
1909	2639
1910	2640
1911	2642
1912	2644
1913	2646
1914	2647
1915	2648
1916	2649
1917	2651
1918	2652
1919	2653
1920	2654
1921	2655
1922	2656
1923	2657
1924	2658
1925	2659
1926	2660
1927	2661
1928	2664
1929	2666
1930	2667
1931	2668
1932	2669
1933	2670
1934	2671
1935	2672
1936	2673
1937	2674
1938	2675
1939	2676
1940	2678
1941	2681
1942	2682
1943	2683
1944	2684
1945	2685
1946	2688
1947	2689
1948	2690
1949	2691
1950	2692
1951	2693
1952	2694
1953	2695
1954	2697
1955	2700
1956	2701
1957	2702
1958	2703
1959	2704
1960	2705
1961	2707
1962	2709
1963	2710
1964	2711
1965	2712
1966	2713
1967	2715
1968	2716
1969	2717
1970	2721
1971	2722
1972	2724
1973	2725
1974	2727
1975	2728
1976	2729
1977	2730
1978	2731
1979	2732
1980	2733
1981	2735
1982	2736
1983	2737
1984	2738
1985	2740
1986	2741
1987	2742
1988	2744
1989	2745
1990	2746
1991	2747
1992	2748
1993	2749
1994	2750
1995	2751
1996	2752
1997	2753
1998	2756
1999	2759
2000	2760
2001	2761
2002	2762
2003	2763
2004	2764
2005	2765
2006	2766
2007	2767
2008	2768
2009	2769
2010	2770
2011	2771
2012	2775
2013	2776
2014	2777
2015	2778
2016	2779
2017	2780
2018	2781
2019	2783
2020	2784
2021	2786
2022	2787
2023	2790
2024	2791
2025	2792
2026	2793
2027	2794
2028	2796
2029	2797
2030	2800
2031	2801
2032	2802
2033	2803
2034	2804
2035	2805
2036	2809
2037	2810
2038	2811
2039	2812
2040	2815
2041	2816
2042	2817
2043	2818
2044	2819
2045	2820
2046	2821
2047	2822
2048	2824
2049	2825
2050	2826
2051	2827
2052	2828
2053	2830
2054	2831
2055	2832
2056	2834
2057	2837
2058	2839
2059	2840
2060	2841
2061	2842
2062	2843
2063	2845
2064	2846
2065	2848
2066	2849
2067	2851
2068	2852
2069	2853
2070	2854
2071	2855
2072	2856
2073	2857
2074	2858
2075	2859
2076	2862
2077	2863
2078	2865
2079	2866
2080	2867
2081	2871
2082	2872
2083	2874
2084	2875
2085	2876
2086	2877
2087	2878
2088	2879
2089	2880
2090	2882
2091	2884
2092	2885
2093	2886
2094	2887
2095	2888
2096	2889
2097	2890
2098	2891
2099	2892
2100	2893
2101	2894
2102	2895
2103	2896
2104	2897
2105	2898
2106	2899
2107	2900
2108	2901
2109	2902
2110	2903
2111	2904
2112	2905
2113	2906
2114	2907
2115	2908
2116	2910
2117	2912
2118	2913
2119	2914
2120	2915
2121	2918
2122	2920
2123	2922
2124	2925
2125	2926
2126	2927
2127	2928
2128	2929
2129	2930
2130	2931
2131	2933
2132	2937
2133	2938
2134	2939
2135	2940
2136	2941
2137	2942
2138	2943
2139	2944
2140	2946
2141	2947
2142	2948
2143	2949
2144	2950
2145	2951
2146	2952
2147	2953
2148	2954
2149	2955
2150	2956
2151	2957
2152	2958
2153	2960
2154	2961
2155	2963
2156	2964
2157	2965
2158	2966
2159	2967
2160	2968
2161	2969
2162	2970
2163	2971
2164	2973
2165	2979
2166	2981
2167	2982
2168	2983
2169	2984
2170	2986
2171	2988
2172	2989
2173	2990
2174	2991
2175	2992
2176	2993
2177	2996
2178	2997
2179	2998
2180	3000
2181	3002
2182	3005
2183	3006
2184	3008
2185	3009
2186	3010
2187	3011
2188	3014
2189	3015
2190	3016
2191	3017
2192	3018
2193	3019
2194	3022
2195	3024
2196	3025
2197	3026
2198	3027
2199	3028
2200	3031
2201	3032
2202	3033
2203	3034
2204	3037
2205	3039
2206	3040
2207	3041
2208	3042
2209	3044
2210	3046
2211	3047
2212	3050
2213	3051
2214	3052
2215	3053
2216	3055
2217	3056
2218	3058
2219	3061
2220	3062
2221	3064
2222	3065
2223	3067
2224	3068
2225	3069
2226	3070
2227	3072
2228	3074
2229	3075
2230	3077
2231	3078
2232	3079
2233	3080
2234	3081
2235	3082
2236	3083
2237	3084
2238	3085
2239	3086
2240	3088
2241	3089
2242	3090
2243	3091
2244	3092
2245	3093
2246	3094
2247	3096
2248	3097
2249	3098
2250	3099
2251	3100
2252	3101
2253	3102
2254	3104
2255	3105
2256	3107
2257	3109
2258	3110
2259	3111
2260	3114
2261	3115
2262	3117
2263	3118
2264	3122
2265	3123
2266	3124
2267	3125
2268	3126
2269	3127
2270	3128
2271	3129
2272	3130
2273	3132
2274	3133
2275	3136
2276	3137
2277	3142
2278	3144
2279	3145
2280	3146
2281	3147
2282	3148
2283	3149
2284	3151
2285	3152
2286	3153
2287	3154
2288	3155
2289	3158
2290	3160
2291	3161
2292	3163
2293	3165
2294	3168
2295	3169
2296	3170
2297	3171
2298	3174
2299	3175
2300	3176
2301	3178
2302	3179
2303	3181
2304	3182
2305	3183
2306	3184
2307	3185
2308	3186
2309	3188
2310	3191
2311	3193
2312	3194
2313	3195
2314	3196
2315	3197
2316	3198
2317	3199
2318	3200
2319	3201
2320	3203
2321	3204
2322	3206
2323	3207
2324	3208
2325	3209
2326	3211
2327	3213
2328	3214
2329	3216
2330	3217
2331	3219
2332	3220
2333	3221
2334	3222
2335	3223
2336	3225
2337	3226
2338	3227
2339	3228
2340	3229
2341	3230
2342	3231
2343	3232
2344	3233
2345	3236
2346	3237
2347	3238
2348	3240
2349	3241
2350	3242
2351	3243
2352	3245
2353	3248
2354	3249
2355	3250
2356	3252
2357	3255
2358	3257
2359	3258
2360	3259
2361	3260
2362	3261
2363	3263
2364	3264
2365	3267
2366	3268
2367	3269
2368	3271
2369	3272
2370	3273
2371	3275
2372	3276
2373	3277
2374	3278
2375	3279
2376	3280
2377	3281
2378	3282
2379	3283
2380	3284
2381	3286
2382	3289
2383	3290
2384	3291
2385	3292
2386	3293
2387	3294
2388	3297
2389	3298
2390	3299
2391	3300
2392	3301
2393	3302
2394	3303
2395	3305
2396	3306
2397	3307
2398	3308
2399	3310
2400	3311
2401	3312
2402	3314
2403	3315
2404	3316
2405	3317
2406	3320
2407	3321
2408	3322
2409	3323
2410	3324
2411	3325
2412	3327
2413	3328
2414	3329
2415	3330
2416	3332
2417	3333
2418	3334
2419	3336
2420	3337
2421	3338
2422	3339
2423	3340
2424	3341
2425	3342
2426	3346
2427	3347
2428	3348
2429	3349
2430	3350
2431	3351
2432	3354
2433	3355
2434	3356
2435	3357
2436	3360
2437	3361
2438	3362
2439	3363
2440	3364
2441	3365
2442	3366
2443	3368
2444	3369
2445	3370
2446	3371
2447	3373
2448	3374
2449	3376
2450	3377
2451	3378
2452	3382
2453	3383
2454	3384
2455	3385
2456	3386
2457	3389
2458	3390
2459	3396
2460	3397
2461	3398
2462	3399
2463	3400
2464	3401
2465	3402
2466	3404
2467	3405
2468	3406
2469	3407
2470	3408
2471	3409
2472	3410
2473	3411
2474	3412
2475	3413
2476	3414
2477	3416
2478	3417
2479	3418
2480	3420
2481	3421
2482	3423
2483	3424
2484	3425
2485	3428
2486	3429
2487	3430
2488	3431
2489	3432
2490	3434
2491	3436
2492	3438
2493	3439
2494	3440
2495	3441
2496	3444
2497	3446
2498	3448
2499	3451
2500	3452
2501	3453
2502	3454
2503	3455
2504	3456
2505	3457
2506	3458
2507	3459
2508	3460
2509	3461
2510	3462
2511	3463
2512	3464
2513	3467
2514	3468
2515	3471
2516	3472
2517	3475
2518	3477
2519	3478
2520	3480
2521	3482
2522	3485
2523	3487
2524	3489
2525	3490
2526	3491
2527	3492
2528	3493
2529	3494
2530	3497
2531	3498
2532	3499
2533	3500
2534	3501
2535	3502
2536	3503
2537	3504
2538	3505
2539	3506
2540	3507
2541	3509
2542	3510
2543	3511
2544	3512
2545	3513
2546	3515
2547	3517
2548	3518
2549	3519
2550	3520
2551	3523
2552	3524
2553	3525
2554	3529
2555	3530
2556	3531
2557	3532
2558	3533
2559	3534
2560	3536
2561	3538
2562	3539
2563	3541
2564	3542
2565	3543
2566	3549
2567	3550
2568	3551
2569	3552
2570	3553
2571	3554
2572	3555
2573	3556
2574	3557
2575	3559
2576	3561
2577	3562
2578	3563
2579	3564
2580	3565
2581	3567
2582	3569
2583	3570
2584	3573
2585	3574
2586	3575
2587	3577
2588	3579
2589	3580
2590	3581
2591	3582
2592	3585
2593	3586
2594	3587
2595	3588
2596	3592
2597	3594
2598	3595
2599	3596
2600	3598
2601	3599
2602	3601
2603	3602
2604	3604
2605	3605
2606	3606
2607	3607
2608	3608
2609	3612
2610	3613
2611	3614
2612	3615
2613	3617
2614	3619
2615	3621
2616	3622
2617	3623
2618	3625
2619	3626
2620	3627
2621	3628
2622	3630
2623	3631
2624	3632
2625	3633
2626	3634
2627	3635
2628	3636
2629	3637
2630	3639
2631	3640
2632	3641
2633	3643
2634	3644
2635	3645
2636	3648
2637	3649
2638	3651
2639	3652
2640	3654
2641	3655
2642	3656
2643	3657
2644	3658
2645	3659
2646	3660
2647	3662
2648	3663
2649	3665
2650	3666
2651	3668
2652	3669
2653	3671
2654	3672
2655	3673
2656	3675
2657	3676
2658	3679
2659	3680
2660	3682
2661	3683
2662	3684
2663	3686
2664	3687
2665	3688
2666	3689
2667	3690
2668	3691
2669	3692
2670	3694
2671	3696
2672	3697
2673	3698
2674	3699
2675	3700
2676	3702
2677	3705
2678	3707
2679	3709
2680	3711
2681	3712
2682	3713
2683	3714
2684	3715
2685	3716
2686	3717
2687	3718
2688	3719
2689	3720
2690	3721
2691	3722
2692	3723
2693	3725
2694	3726
2695	3727
2696	3728
2697	3729
2698	3731
2699	3732
2700	3733
2701	3734
2702	3735
2703	3737
2704	3739
2705	3740
2706	3741
2707	3742
2708	3743
2709	3746
2710	3749
2711	3751
2712	3752
2713	3753
2714	3758
2715	3759
2716	3760
2717	3761
2718	3762
2719	3763
2720	3764
2721	3765
2722	3766
2723	3768
2724	3769
2725	3770
2726	3771
2727	3773
2728	3775
2729	3776
2730	3778
2731	3780
2732	3781
2733	3782
2734	3783
2735	3785
2736	3786
2737	3787
2738	3788
2739	3789
2740	3790
2741	3791
2742	3792
2743	3793
2744	3794
2745	3796
2746	3797
2747	3805
2748	3807
2749	3808
2750	3810
2751	3811
2752	3812
2753	3814
2754	3815
2755	3817
2756	3818
2757	3819
2758	3820
2759	3821
2760	3822
2761	3823
2762	3825
2763	3827
2764	3828
2765	3829
2766	3830
2767	3833
2768	3834
2769	3837
2770	3840
2771	3842
2772	3845
2773	3846
2774	3847
2775	3848
2776	3849
2777	3852
2778	3853
2779	3854
2780	3855
2781	3856
2782	3859
2783	3860
2784	3862
2785	3863
2786	3865
2787	3867
2788	3868
2789	3869
2790	3872
2791	3873
2792	3874
2793	3875
2794	3876
2795	3877
2796	3879
2797	3882
2798	3883
2799	3885
2800	3886
2801	3887
2802	3888
2803	3889
2804	3890
2805	3891
2806	3892
2807	3893
2808	3895
2809	3896
2810	3898
2811	3899
2812	3900
2813	3901
2814	3903
2815	3905
2816	3906
2817	3907
2818	3909
2819	3910
2820	3912
2821	3915
2822	3916
2823	3917
2824	3918
2825	3920
2826	3922
2827	3923
2828	3924
2829	3926
2830	3927
2831	3930
2832	3931
2833	3932
2834	3933
2835	3935
2836	3936
2837	3937
2838	3938
2839	3939
2840	3941
2841	3942
2842	3943
2843	3946
2844	3947
2845	3948
2846	3949
2847	3950
2848	3951
2849	3954
2850	3956
2851	3957
2852	3959
2853	3960
2854	3961
2855	3962
2856	3963
2857	3965
2858	3967
2859	3968
2860	3970
2861	3971
2862	3972
2863	3973
2864	3975
2865	3976
2866	3977
2867	3978
2868	3979
2869	3980
2870	3981
2871	3983
2872	3987
2873	3988
2874	3989
2875	3990
2876	3992
2877	3994
2878	3995
2879	3998
2880	4000
2881	4002
2882	4003
2883	4004
2884	4005
2885	4006
2886	4007
2887	4010
2888	4011
2889	4012
2890	4014
2891	4015
2892	4016
2893	4017
2894	4018
2895	4021
2896	4022
2897	4023
2898	4024
2899	4025
2900	4026
2901	4027
2902	4028
2903	4029
2904	4030
2905	4031
2906	4032
2907	4033
2908	4035
2909	4036
2910	4037
2911	4038
2912	4039
2913	4040
2914	4041
2915	4042
2916	4043
2917	4044
2918	4045
2919	4046
2920	4048
2921	4050
2922	4051
2923	4052
2924	4053
2925	4054
2926	4055
2927	4056
2928	4057
2929	4059
2930	4060
2931	4061
2932	4062
2933	4063
2934	4064
2935	4065
2936	4068
2937	4069
2938	4071
2939	4072
2940	4074
2941	4077
2942	4078
2943	4079
2944	4080
2945	4081
2946	4082
2947	4083
2948	4086
2949	4087
2950	4088
2951	4089
2952	4090
2953	4093
2954	4094
2955	4095
2956	4096
2957	4097
2958	4098
2959	4101
2960	4102
2961	4103
2962	4104
2963	4105
2964	4106
2965	4107
2966	4108
2967	4109
2968	4110
2969	4111
2970	4113
2971	4114
2972	4115
2973	4116
2974	4118
2975	4119
2976	4120
2977	4122
2978	4124
2979	4127
2980	4128
2981	4129
2982	4130
2983	4132
2984	4133
2985	4134
2986	4135
2987	4136
2988	4138
2989	4139
2990	4140
2991	4141
2992	4144
2993	4145
2994	4146
2995	4147
2996	4149
2997	4151
2998	4152
2999	4153
3000	4155
3001	4156
3002	4157
3003	4158
3004	4159
3005	4161
3006	4162
3007	4164
3008	4165
3009	4166
3010	4168
3011	4169
3012	4170
3013	4171
3014	4173
3015	4174
3016	4176
3017	4177
3018	4178
3019	4179
3020	4180
3021	4181
3022	4182
3023	4183
3024	4184
3025	4185
3026	4186
3027	4187
3028	4190
3029	4192
3030	4193
3031	4194
3032	4196
3033	4197
3034	4198
3035	4201
3036	4202
3037	4204
3038	4205
3039	4207
3040	4208
3041	4210
3042	4211
3043	4212
3044	4213
3045	4214
3046	4216
3047	4217
3048	4218
3049	4220
3050	4223
3051	4225
3052	4226
3053	4228
3054	4229
3055	4230
3056	4231
3057	4233
3058	4234
3059	4235
3060	4237
3061	4238
3062	4240
3063	4243
3064	4244
3065	4245
3066	4247
3067	4248
3068	4250
3069	4251
3070	4255
3071	4256
3072	4258
3073	4259
3074	4260
3075	4263
3076	4266
3077	4268
3078	4269
3079	4270
3080	4271
3081	4272
3082	4273
3083	4276
3084	4278
3085	4279
3086	4280
3087	4281
3088	4282
3089	4283
3090	4286
3091	4287
3092	4288
3093	4292
3094	4293
3095	4294
3096	4295
3097	4296
3098	4297
3099	4298
3100	4299
3101	4301
3102	4302
3103	4304
3104	4305
3105	4306
3106	4309
3107	4310
3108	4311
3109	4312
3110	4313
3111	4314
3112	4315
3113	4317
3114	4318
3115	4319
3116	4320
3117	4321
3118	4322
3119	4324
3120	4325
3121	4327
3122	4328
3123	4329
3124	4331
3125	4334
3126	4336
3127	4337
3128	4338
3129	4339
3130	4340
3131	4341
3132	4342
3133	4344
3134	4345
3135	4347
3136	4348
3137	4349
3138	4350
3139	4352
3140	4353
3141	4354
3142	4356
3143	4357
3144	4358
3145	4359
3146	4360
3147	4361
3148	4362
3149	4363
3150	4365
3151	4367
3152	4368
3153	4369
3154	4371
3155	4372
3156	4378
3157	4379
3158	4380
3159	4382
3160	4383
3161	4384
3162	4387
3163	4388
3164	4389
3165	4390
3166	4391
3167	4394
3168	4396
3169	4397
3170	4398
3171	4407
3172	4412
3173	4414
3174	4416
3175	4417
3176	4418
3177	4421
3178	4426
3179	4428
3180	4430
3181	4431
3182	4432
3183	4434
3184	4435
3185	4438
3186	4439
3187	4440
3188	4441
3189	4444
3190	4447
3191	4450
3192	4452
3193	4453
3194	4457
3195	4459
3196	4460
3197	4461
3198	4462
3199	4464
3200	4468
3201	4469
3202	4471
3203	4474
3204	4478
3205	4479
3206	4482
3207	4484
3208	4485
3209	4486
3210	4487
3211	4488
3212	4493
3213	4496
3214	4497
3215	4500
3216	4505
3217	4508
3218	4514
3219	4515
3220	4516
3221	4518
3222	4519
3223	4522
3224	4524
3225	4525
3226	4526
3227	4527
3228	4528
3229	4530
3230	4533
3231	4534
3232	4535
3233	4536
3234	4539
3235	4540
3236	4541
3237	4542
3238	4543
3239	4544
3240	4546
3241	4547
3242	4548
3243	4550
3244	4551
3245	4552
3246	4553
3247	4554
3248	4555
3249	4556
3250	4557
3251	4558
3252	4559
3253	4560
3254	4561
3255	4562
3256	4563
3257	4564
3258	4566
3259	4567
3260	4569
3261	4570
3262	4571
3263	4572
3264	4573
3265	4574
3266	4576
3267	4579
3268	4582
3269	4583
3270	4584
3271	4585
3272	4586
3273	4597
3274	4599
3275	4600
3276	4601
3277	4602
3278	4605
3279	4607
3280	4609
3281	4611
3282	4614
3283	4615
3284	4616
3285	4618
3286	4619
3287	4620
3288	4622
3289	4623
3290	4624
3291	4625
3292	4626
3293	4628
3294	4630
3295	4632
3296	4633
3297	4635
3298	4636
3299	4637
3300	4638
3301	4639
3302	4640
3303	4641
3304	4643
3305	4644
3306	4646
3307	4647
3308	4650
3309	4651
3310	4654
3311	4656
3312	4661
3313	4665
3314	4666
3315	4667
3316	4669
3317	4670
3318	4672
3319	4676
3320	4677
3321	4679
3322	4681
3323	4683
3324	4684
3325	4685
3326	4689
3327	4692
3328	4694
3329	4695
3330	4696
3331	4699
3332	4700
3333	4701
3334	4702
3335	4704
3336	4705
3337	4706
3338	4707
3339	4708
3340	4711
3341	4713
3342	4714
3343	4715
3344	4716
3345	4718
3346	4719
3347	4720
3348	4722
3349	4723
3350	4724
3351	4726
3352	4727
3353	4728
3354	4729
3355	4730
3356	4731
3357	4733
3358	4735
3359	4741
3360	4744
3361	4748
3362	4749
3363	4750
3364	4751
3365	4753
3366	4755
3367	4757
3368	4758
3369	4759
3370	4760
3371	4761
3372	4764
3373	4767
3374	4768
3375	4769
3376	4770
3377	4772
3378	4773
3379	4774
3380	4775
3381	4778
3382	4780
3383	4781
3384	4782
3385	4783
3386	4784
3387	4786
3388	4796
3389	4798
3390	4803
3391	4805
3392	4808
3393	4810
3394	4811
3395	4812
3396	4813
3397	4814
3398	4815
3399	4817
3400	4818
3401	4820
3402	4822
3403	4825
3404	4830
3405	4833
3406	4836
3407	4837
3408	4844
3409	4850
3410	4854
3411	4860
3412	4866
3413	4868
3414	4870
3415	4871
3416	4873
3417	4877
3418	4879
3419	4880
3420	4881
3421	4882
3422	4883
3423	4884
3424	4885
3425	4890
3426	4891
3427	4894
3428	4899
3429	4905
3430	4909
3431	4915
3432	4916
3433	4922
3434	4923
3435	4927
3436	4928
3437	4931
3438	4932
3439	4934
3440	4937
3441	4938
3442	4939
3443	4940
3444	4941
3445	4943
3446	4945
3447	4946
3448	4947
3449	4948
3450	4949
3451	4950
3452	4951
3453	4952
3454	4954
3455	4956
3456	4960
3457	4961
3458	4963
3459	4965
3460	4966
3461	4968
3462	4969
3463	4970
3464	4974
3465	4976
3466	4977
3467	4978
3468	4979
3469	4980
3470	4982
3471	4984
3472	4989
3473	4991
3474	4995
3475	4996
3476	5000
3477	5001
3478	5002
3479	5005
3480	5007
3481	5009
3482	5010
3483	5011
3484	5014
3485	5015
3486	5018
3487	5020
3488	5021
3489	5024
3490	5028
3491	5029
3492	5033
3493	5036
3494	5037
3495	5040
3496	5041
3497	5045
3498	5050
3499	5051
3500	5052
3501	5053
3502	5054
3503	5055
3504	5056
3505	5057
3506	5058
3507	5059
3508	5063
3509	5072
3510	5074
3511	5080
3512	5083
3513	5085
3514	5087
3515	5088
3516	5089
3517	5090
3518	5091
3519	5093
3520	5094
3521	5095
3522	5099
3523	5101
3524	5102
3525	5103
3526	5107
3527	5108
3528	5109
3529	5114
3530	5115
3531	5117
3532	5120
3533	5122
3534	5126
3535	5127
3536	5128
3537	5129
3538	5130
3539	5131
3540	5134
3541	5139
3542	5146
3543	5148
3544	5150
3545	5151
3546	5152
3547	5156
3548	5161
3549	5163
3550	5169
3551	5170
3552	5171
3553	5172
3554	5181
3555	5182
3556	5185
3557	5191
3558	5197
3559	5200
3560	5201
3561	5203
3562	5207
3563	5208
3564	5209
3565	5210
3566	5212
3567	5217
3568	5219
3569	5230
3570	5231
3571	5233
3572	5235
3573	5241
3574	5245
3575	5249
3576	5252
3577	5253
3578	5258
3579	5263
3580	5265
3581	5269
3582	5272
3583	5275
3584	5276
3585	5278
3586	5279
3587	5280
3588	5281
3589	5282
3590	5290
3591	5292
3592	5293
3593	5296
3594	5302
3595	5303
3596	5304
3597	5305
3598	5306
3599	5307
3600	5309
3601	5316
3602	5318
3603	5321
3604	5324
3605	5325
3606	5326
3607	5328
3608	5330
3609	5331
3610	5332
3611	5334
3612	5335
3613	5336
3614	5337
3615	5343
3616	5345
3617	5346
3618	5347
3619	5349
3620	5350
3621	5351
3622	5355
3623	5357
3624	5361
3625	5363
3626	5367
3627	5371
3628	5375
3629	5376
3630	5377
3631	5379
3632	5380
3633	5385
3634	5386
3635	5387
3636	5389
3637	5395
3638	5398
3639	5399
3640	5400
3641	5402
3642	5403
3643	5405
3644	5411
3645	5413
3646	5416
3647	5417
3648	5424
3649	5425
3650	5427
3651	5428
3652	5430
3653	5433
3654	5434
3655	5436
3656	5437
3657	5438
3658	5440
3659	5442
3660	5443
3661	5448
3662	5449
3663	5451
3664	5454
3665	5455
3666	5456
3667	5457
3668	5459
3669	5462
3670	5464
3671	5469
3672	5472
3673	5473
3674	5476
3675	5478
3676	5479
3677	5484
3678	5487
3679	5491
3680	5493
3681	5495
3682	5501
3683	5502
3684	5504
3685	5505
3686	5506
3687	5507
3688	5509
3689	5515
3690	5519
3691	5521
3692	5523
3693	5526
3694	5527
3695	5528
3696	5530
3697	5538
3698	5541
3699	5542
3700	5543
3701	5544
3702	5545
3703	5551
3704	5555
3705	5563
3706	5565
3707	5566
3708	5567
3709	5568
3710	5570
3711	5571
3712	5572
3713	5573
3714	5576
3715	5579
3716	5580
3717	5581
3718	5585
3719	5592
3720	5593
3721	5594
3722	5600
3723	5603
3724	5604
3725	5605
3726	5606
3727	5609
3728	5611
3729	5613
3730	5616
3731	5618
3732	5621
3733	5622
3734	5623
3735	5625
3736	5627
3737	5628
3738	5635
3739	5638
3740	5642
3741	5649
3742	5653
3743	5655
3744	5662
3745	5663
3746	5665
3747	5670
3748	5672
3749	5675
3750	5681
3751	5682
3752	5687
3753	5689
3754	5695
3755	5697
3756	5698
3757	5700
3758	5701
3759	5704
3760	5710
3761	5712
3762	5714
3763	5724
3764	5728
3765	5731
3766	5734
3767	5735
3768	5736
3769	5737
3770	5738
3771	5739
3772	5742
3773	5744
3774	5745
3775	5746
3776	5748
3777	5751
3778	5754
3779	5758
3780	5764
3781	5771
3782	5772
3783	5773
3784	5777
3785	5778
3786	5779
3787	5780
3788	5781
3789	5782
3790	5784
3791	5788
3792	5790
3793	5793
3794	5794
3795	5796
3796	5797
3797	5798
3798	5799
3799	5800
3800	5801
3801	5804
3802	5805
3803	5806
3804	5807
3805	5808
3806	5809
3807	5811
3808	5812
3809	5814
3810	5815
3811	5816
3812	5818
3813	5819
3814	5820
3815	5822
3816	5824
3817	5825
3818	5827
3819	5829
3820	5830
3821	5831
3822	5832
3823	5835
3824	5836
3825	5840
3826	5841
3827	5843
3828	5844
3829	5845
3830	5846
3831	5849
3832	5850
3833	5851
3834	5852
3835	5854
3836	5856
3837	5857
3838	5858
3839	5859
3840	5860
3841	5861
3842	5862
3843	5863
3844	5864
3845	5865
3846	5866
3847	5867
3848	5869
3849	5870
3850	5871
3851	5872
3852	5873
3853	5876
3854	5877
3855	5879
3856	5880
3857	5881
3858	5882
3859	5883
3860	5884
3861	5886
3862	5887
3863	5889
3864	5890
3865	5891
3866	5893
3867	5894
3868	5895
3869	5896
3870	5897
3871	5900
3872	5901
3873	5902
3874	5903
3875	5904
3876	5905
3877	5906
3878	5907
3879	5908
3880	5909
3881	5910
3882	5915
3883	5916
3884	5917
3885	5918
3886	5919
3887	5920
3888	5922
3889	5923
3890	5924
3891	5925
3892	5926
3893	5927
3894	5928
3895	5929
3896	5932
3897	5935
3898	5937
3899	5938
3900	5940
3901	5941
3902	5944
3903	5946
3904	5947
3905	5948
3906	5949
3907	5950
3908	5953
3909	5955
3910	5957
3911	5959
3912	5960
3913	5961
3914	5962
3915	5963
3916	5965
3917	5966
3918	5967
3919	5968
3920	5969
3921	5970
3922	5971
3923	5973
3924	5975
3925	5978
3926	5979
3927	5982
3928	5985
3929	5986
3930	5987
3931	5991
3932	5992
3933	5993
3934	5994
3935	5996
3936	5998
3937	6000
3938	6002
3939	6004
3940	6007
3941	6008
3942	6010
3943	6012
3944	6013
3945	6014
3946	6017
3947	6018
3948	6019
3949	6022
3950	6024
3951	6025
3952	6026
3953	6027
3954	6028
3955	6029
3956	6030
3957	6031
3958	6033
3959	6034
3960	6035
3961	6036
3962	6037
3963	6038
3964	6040
3965	6041
3966	6042
3967	6043
3968	6044
3969	6045
3970	6046
3971	6047
3972	6048
3973	6050
3974	6051
3975	6052
3976	6053
3977	6054
3978	6055
3979	6057
3980	6058
3981	6059
3982	6060
3983	6061
3984	6062
3985	6063
3986	6065
3987	6066
3988	6067
3989	6068
3990	6069
3991	6072
3992	6073
3993	6074
3994	6075
3995	6077
3996	6078
3997	6080
3998	6081
3999	6082
4000	6083
4001	6084
4002	6085
4003	6086
4004	6087
4005	6088
4006	6091
4007	6093
4008	6094
4009	6096
4010	6098
4011	6099
4012	6100
4013	6101
4014	6102
4015	6103
4016	6105
4017	6106
4018	6107
4019	6109
4020	6110
4021	6111
4022	6112
4023	6114
4024	6116
4025	6117
4026	6121
4027	6122
4028	6123
4029	6124
4030	6126
4031	6127
4032	6128
4033	6129
4034	6132
4035	6133
4036	6134
4037	6136
4038	6137
4039	6138
4040	6139
4041	6140
4042	6141
4043	6142
4044	6144
4045	6145
4046	6147
4047	6148
4048	6149
4049	6151
4050	6152
4051	6153
4052	6154
4053	6155
4054	6156
4055	6158
4056	6159
4057	6162
4058	6163
4059	6164
4060	6165
4061	6168
4062	6169
4063	6170
4064	6171
4065	6172
4066	6173
4067	6176
4068	6177
4069	6179
4070	6181
4071	6182
4072	6183
4073	6187
4074	6188
4075	6190
4076	6191
4077	6192
4078	6194
4079	6195
4080	6199
4081	6201
4082	6205
4083	6206
4084	6207
4085	6208
4086	6210
4087	6211
4088	6214
4089	6216
4090	6218
4091	6219
4092	6221
4093	6222
4094	6223
4095	6225
4096	6227
4097	6228
4098	6229
4099	6230
4100	6231
4101	6233
4102	6234
4103	6235
4104	6236
4105	6237
4106	6238
4107	6239
4108	6240
4109	6242
4110	6243
4111	6244
4112	6247
4113	6248
4114	6249
4115	6251
4116	6252
4117	6253
4118	6254
4119	6255
4120	6257
4121	6258
4122	6262
4123	6263
4124	6264
4125	6266
4126	6267
4127	6268
4128	6269
4129	6270
4130	6271
4131	6272
4132	6273
4133	6274
4134	6276
4135	6277
4136	6278
4137	6279
4138	6280
4139	6284
4140	6285
4141	6286
4142	6287
4143	6289
4144	6290
4145	6292
4146	6294
4147	6295
4148	6296
4149	6298
4150	6299
4151	6302
4152	6303
4153	6305
4154	6306
4155	6307
4156	6308
4157	6309
4158	6311
4159	6312
4160	6314
4161	6317
4162	6319
4163	6321
4164	6326
4165	6328
4166	6330
4167	6331
4168	6332
4169	6334
4170	6339
4171	6340
4172	6344
4173	6346
4174	6347
4175	6348
4176	6350
4177	6351
4178	6352
4179	6355
4180	6356
4181	6358
4182	6361
4183	6362
4184	6363
4185	6364
4186	6365
4187	6366
4188	6367
4189	6368
4190	6369
4191	6370
4192	6371
4193	6374
4194	6375
4195	6376
4196	6377
4197	6378
4198	6379
4199	6381
4200	6384
4201	6385
4202	6389
4203	6390
4204	6391
4205	6392
4206	6393
4207	6394
4208	6400
4209	6404
4210	6413
4211	6414
4212	6416
4213	6420
4214	6421
4215	6423
4216	6424
4217	6427
4218	6429
4219	6430
4220	6431
4221	6433
4222	6434
4223	6435
4224	6436
4225	6437
4226	6438
4227	6440
4228	6442
4229	6443
4230	6444
4231	6445
4232	6450
4233	6451
4234	6453
4235	6454
4236	6455
4237	6456
4238	6462
4239	6463
4240	6465
4241	6466
4242	6468
4243	6469
4244	6471
4245	6472
4246	6473
4247	6474
4248	6475
4249	6477
4250	6478
4251	6479
4252	6481
4253	6482
4254	6483
4255	6485
4256	6487
4257	6489
4258	6490
4259	6491
4260	6492
4261	6493
4262	6494
4263	6495
4264	6496
4265	6497
4266	6498
4267	6499
4268	6500
4269	6501
4270	6502
4271	6503
4272	6504
4273	6506
4274	6507
4275	6508
4276	6509
4277	6511
4278	6512
4279	6516
4280	6517
4281	6518
4282	6519
4283	6523
4284	6524
4285	6525
4286	6528
4287	6529
4288	6531
4289	6532
4290	6535
4291	6540
4292	6542
4293	6543
4294	6545
4295	6549
4296	6551
4297	6554
4298	6555
4299	6556
4300	6557
4301	6558
4302	6562
4303	6564
4304	6567
4305	6570
4306	6571
4307	6572
4308	6574
4309	6575
4310	6576
4311	6577
4312	6578
4313	6579
4314	6581
4315	6582
4316	6583
4317	6584
4318	6586
4319	6587
4320	6588
4321	6589
4322	6590
4323	6592
4324	6593
4325	6594
4326	6597
4327	6598
4328	6599
4329	6600
4330	6602
4331	6604
4332	6606
4333	6607
4334	6608
4335	6609
4336	6610
4337	6611
4338	6612
4339	6613
4340	6615
4341	6619
4342	6623
4343	6631
4344	6633
4345	6634
4346	6636
4347	6637
4348	6638
4349	6639
4350	6640
4351	6645
4352	6647
4353	6648
4354	6649
4355	6650
4356	6651
4357	6652
4358	6653
4359	6655
4360	6656
4361	6657
4362	6658
4363	6660
4364	6661
4365	6664
4366	6665
4367	6666
4368	6667
4369	6668
4370	6669
4371	6672
4372	6675
4373	6676
4374	6682
4375	6683
4376	6684
4377	6685
4378	6687
4379	6688
4380	6690
4381	6691
4382	6694
4383	6695
4384	6697
4385	6701
4386	6702
4387	6704
4388	6706
4389	6707
4390	6708
4391	6710
4392	6712
4393	6714
4394	6715
4395	6716
4396	6717
4397	6718
4398	6719
4399	6722
4400	6723
4401	6724
4402	6726
4403	6728
4404	6729
4405	6731
4406	6732
4407	6734
4408	6735
4409	6736
4410	6738
4411	6740
4412	6743
4413	6745
4414	6747
4415	6748
4416	6749
4417	6751
4418	6752
4419	6753
4420	6756
4421	6758
4422	6761
4423	6762
4424	6765
4425	6766
4426	6767
4427	6771
4428	6773
4429	6775
4430	6776
4431	6780
4432	6784
4433	6787
4434	6788
4435	6789
4436	6790
4437	6791
4438	6794
4439	6798
4440	6799
4441	6802
4442	6811
4443	6813
4444	6814
4445	6815
4446	6817
4447	6818
4448	6820
4449	6837
4450	6838
4451	6844
4452	6845
4453	6848
4454	6849
4455	6851
4456	6852
4457	6855
4458	6860
4459	6861
4460	6865
4461	6868
4462	6869
4463	6870
4464	6871
4465	6873
4466	6875
4467	6879
4468	6880
4469	6881
4470	6882
4471	6883
4472	6884
4473	6886
4474	6889
4475	6892
4476	6896
4477	6897
4478	6899
4479	6900
4480	6902
4481	6903
4482	6909
4483	6910
4484	6911
4485	6914
4486	6915
4487	6918
4488	6920
4489	6921
4490	6924
4491	6926
4492	6928
4493	6929
4494	6930
4495	6934
4496	6935
4497	6936
4498	6938
4499	6939
4500	6941
4501	6942
4502	6943
4503	6944
4504	6945
4505	6946
4506	6947
4507	6948
4508	6949
4509	6950
4510	6951
4511	6952
4512	6956
4513	6962
4514	6965
4515	6966
4516	6971
4517	6974
4518	6976
4519	6979
4520	6982
4521	6983
4522	6984
4523	6985
4524	6987
4525	6989
4526	6992
4527	6996
4528	7001
4529	7003
4530	7005
4531	7006
4532	7010
4533	7012
4534	7018
4535	7021
4536	7022
4537	7023
4538	7026
4539	7027
4540	7028
4541	7030
4542	7032
4543	7033
4544	7034
4545	7035
4546	7036
4547	7037
4548	7038
4549	7039
4550	7040
4551	7041
4552	7042
4553	7043
4554	7045
4555	7047
4556	7052
4557	7053
4558	7054
4559	7060
4560	7061
4561	7063
4562	7066
4563	7068
4564	7069
4565	7074
4566	7075
4567	7076
4568	7078
4569	7080
4570	7084
4571	7085
4572	7086
4573	7087
4574	7088
4575	7089
4576	7090
4577	7091
4578	7092
4579	7093
4580	7096
4581	7101
4582	7102
4583	7104
4584	7105
4585	7106
4586	7107
4587	7116
4588	7121
4589	7124
4590	7127
4591	7128
4592	7129
4593	7130
4594	7131
4595	7132
4596	7142
4597	7147
4598	7150
4599	7153
4600	7154
4601	7155
4602	7156
4603	7159
4604	7160
4605	7162
4606	7164
4607	7169
4608	7171
4609	7183
4610	7184
4611	7188
4612	7189
4613	7191
4614	7192
4615	7201
4616	7212
4617	7213
4618	7217
4619	7221
4620	7223
4621	7225
4622	7230
4623	7241
4624	7242
4625	7243
4626	7244
4627	7245
4628	7247
4629	7254
4630	7258
4631	7262
4632	7264
4633	7266
4634	7269
4635	7270
4636	7275
4637	7276
4638	7279
4639	7280
4640	7282
4641	7289
4642	7290
4643	7292
4644	7293
4645	7296
4646	7297
4647	7303
4648	7304
4649	7306
4650	7309
4651	7310
4652	7312
4653	7317
4654	7318
4655	7320
4656	7321
4657	7325
4658	7328
4659	7329
4660	7331
4661	7333
4662	7334
4663	7336
4664	7340
4665	7343
4666	7345
4667	7347
4668	7348
4669	7350
4670	7352
4671	7354
4672	7355
4673	7362
4674	7368
4675	7370
4676	7371
4677	7372
4678	7373
4679	7374
4680	7376
4681	7377
4682	7378
4683	7385
4684	7387
4685	7396
4686	7400
4687	7401
4688	7403
4689	7406
4690	7408
4691	7410
4692	7411
4693	7412
4694	7413
4695	7414
4696	7419
4697	7420
4698	7421
4699	7435
4700	7436
4701	7438
4702	7439
4703	7440
4704	7442
4705	7443
4706	7445
4707	7446
4708	7447
4709	7448
4710	7449
4711	7450
4712	7451
4713	7452
4714	7459
4715	7464
4716	7472
4717	7475
4718	7476
4719	7479
4720	7489
4721	7490
4722	7491
4723	7493
4724	7498
4725	7505
4726	7509
4727	7512
4728	7513
4729	7518
4730	7519
4731	7523
4732	7530
4733	7531
4734	7532
4735	7533
4736	7534
4737	7543
4738	7544
4739	7546
4740	7553
4741	7558
4742	7559
4743	7560
4744	7563
4745	7564
4746	7566
4747	7567
4748	7568
4749	7573
4750	7574
4751	7576
4752	7584
4753	7585
4754	7590
4755	7594
4756	7596
4757	7598
4758	7599
4759	7601
4760	7602
4761	7608
4762	7618
4763	7619
4764	7621
4765	7629
4766	7635
4767	7637
4768	7647
4769	7649
4770	7650
4771	7653
4772	7660
4773	7661
4774	7662
4775	7663
4776	7664
4777	7667
4778	7668
4779	7671
4780	7679
4781	7684
4782	7685
4783	7686
4784	7687
4785	7690
4786	7692
4787	7693
4788	7694
4789	7695
4790	7696
4791	7697
4792	7698
4793	7700
4794	7701
4795	7703
4796	7704
4797	7706
4798	7709
4799	7710
4800	7738
4801	7740
4802	7741
4803	7747
4804	7749
4805	7750
4806	7752
4807	7753
4808	7755
4809	7757
4810	7758
4811	7760
4812	7762
4813	7763
4814	7765
4815	7766
4816	7767
4817	7768
4818	7769
4819	7773
4820	7775
4821	7776
4822	7780
4823	7781
4824	7783
4825	7786
4826	7787
4827	7789
4828	7790
4829	7792
4830	7795
4831	7797
4832	7798
4833	7799
4834	7801
4835	7802
4836	7803
4837	7804
4838	7805
4839	7806
4840	7807
4841	7810
4842	7811
4843	7813
4844	7820
4845	7821
4846	7822
4847	7823
4848	7827
4849	7828
4850	7829
4851	7830
4852	7831
4853	7832
4854	7834
4855	7835
4856	7836
4857	7838
4858	7839
4859	7840
4860	7841
4861	7842
4862	7846
4863	7847
4864	7848
4865	7850
4866	7851
4867	7853
4868	7854
4869	7855
4870	7856
4871	7857
4872	7860
4873	7861
4874	7862
4875	7865
4876	7866
4877	7867
4878	7869
4879	7870
4880	7871
4881	7872
4882	7873
4883	7874
4884	7875
4885	7876
4886	7879
4887	7880
4888	7881
4889	7883
4890	7884
4891	7885
4892	7886
4893	7887
4894	7888
4895	7889
4896	7890
4897	7891
4898	7892
4899	7893
4900	7894
4901	7895
4902	7896
4903	7897
4904	7898
4905	7899
4906	7901
4907	7902
4908	7905
4909	7907
4910	7908
4911	7909
4912	7910
4913	7911
4914	7913
4915	7914
4916	7915
4917	7916
4918	7917
4919	7919
4920	7921
4921	7922
4922	7923
4923	7924
4924	7927
4925	7928
4926	7929
4927	7930
4928	7931
4929	7934
4930	7937
4931	7938
4932	7940
4933	7941
4934	7942
4935	7943
4936	7944
4937	7947
4938	7948
4939	7949
4940	7950
4941	7953
4942	7954
4943	7955
4944	7956
4945	7957
4946	7958
4947	7960
4948	7962
4949	7963
4950	7964
4951	7965
4952	7966
4953	7967
4954	7968
4955	7969
4956	7970
4957	7974
4958	7975
4959	7976
4960	7980
4961	7981
4962	7982
4963	7983
4964	7985
4965	7986
4966	7987
4967	7988
4968	7989
4969	7991
4970	7992
4971	7993
4972	7995
4973	7996
4974	7997
4975	7998
4976	7999
4977	8001
4978	8002
4979	8003
4980	8004
4981	8005
4982	8006
4983	8007
4984	8009
4985	8010
4986	8011
4987	8012
4988	8013
4989	8014
4990	8015
4991	8017
4992	8019
4993	8020
4994	8021
4995	8022
4996	8024
4997	8026
4998	8029
4999	8030
5000	8031
5001	8032
5002	8034
5003	8035
5004	8039
5005	8040
5006	8041
5007	8042
5008	8046
5009	8047
5010	8051
5011	8052
5012	8053
5013	8054
5014	8055
5015	8056
5016	8057
5017	8058
5018	8059
5019	8060
5020	8061
5021	8062
5022	8063
5023	8065
5024	8067
5025	8068
5026	8069
5027	8070
5028	8072
5029	8073
5030	8074
5031	8075
5032	8078
5033	8079
5034	8080
5035	8081
5036	8084
5037	8085
5038	8087
5039	8088
5040	8090
5041	8091
5042	8092
5043	8093
5044	8094
5045	8096
5046	8097
5047	8098
5048	8099
5049	8100
5050	8101
5051	8102
5052	8103
5053	8104
5054	8105
5055	8106
5056	8107
5057	8108
5058	8109
5059	8110
5060	8111
5061	8112
5062	8114
5063	8115
5064	8117
5065	8119
5066	8120
5067	8121
5068	8122
5069	8123
5070	8124
5071	8125
5072	8129
5073	8130
5074	8131
5075	8132
5076	8133
5077	8136
5078	8137
5079	8139
5080	8141
5081	8142
5082	8143
5083	8144
5084	8145
5085	8146
5086	8147
5087	8149
5088	8150
5089	8151
5090	8153
5091	8154
5092	8155
5093	8157
5094	8159
5095	8160
5096	8162
5097	8164
5098	8165
5099	8166
5100	8167
5101	8168
5102	8171
5103	8172
5104	8173
5105	8175
5106	8176
5107	8177
5108	8179
5109	8180
5110	8182
5111	8183
5112	8188
5113	8189
5114	8190
5115	8191
5116	8192
5117	8194
5118	8195
5119	8196
5120	8202
5121	8203
5122	8204
5123	8206
5124	8208
5125	8210
5126	8211
5127	8213
5128	8215
5129	8217
5130	8218
5131	8219
5132	8221
5133	8222
5134	8223
5135	8224
5136	8225
5137	8226
5138	8227
5139	8228
5140	8229
5141	8230
5142	8231
5143	8232
5144	8233
5145	8235
5146	8236
5147	8239
5148	8240
5149	8241
5150	8242
5151	8243
5152	8244
5153	8246
5154	8247
5155	8249
5156	8251
5157	8255
5158	8256
5159	8257
5160	8259
5161	8261
5162	8262
5163	8263
5164	8264
5165	8265
5166	8266
5167	8267
5168	8269
5169	8270
5170	8271
5171	8273
5172	8274
5173	8275
5174	8276
5175	8277
5176	8278
5177	8279
5178	8280
5179	8281
5180	8282
5181	8283
5182	8286
5183	8288
5184	8290
5185	8291
5186	8295
5187	8296
5188	8298
5189	8299
5190	8301
5191	8302
5192	8304
5193	8305
5194	8306
5195	8307
5196	8308
5197	8309
5198	8310
5199	8311
5200	8313
5201	8314
5202	8316
5203	8320
5204	8321
5205	8322
5206	8324
5207	8325
5208	8326
5209	8327
5210	8328
5211	8330
5212	8331
5213	8332
5214	8333
5215	8334
5216	8335
5217	8338
5218	8339
5219	8340
5220	8341
5221	8344
5222	8345
5223	8348
5224	8354
5225	8355
5226	8356
5227	8357
5228	8359
5229	8361
5230	8362
5231	8364
5232	8374
5233	8376
5234	8378
5235	8379
5236	8380
5237	8382
5238	8383
5239	8386
5240	8387
5241	8390
5242	8392
5243	8393
5244	8395
5245	8396
5246	8397
5247	8399
5248	8401
5249	8402
5250	8406
5251	8409
5252	8410
5253	8411
5254	8412
5255	8415
5256	8419
5257	8422
5258	8423
5259	8424
5260	8425
5261	8426
5262	8428
5263	8430
5264	8433
5265	8434
5266	8437
5267	8438
5268	8439
5269	8440
5270	8441
5271	8442
5272	8444
5273	8446
5274	8447
5275	8448
5276	8451
5277	8452
5278	8453
5279	8455
5280	8456
5281	8457
5282	8458
5283	8460
5284	8462
5285	8463
5286	8465
5287	8467
5288	8468
5289	8470
5290	8471
5291	8473
5292	8474
5293	8476
5294	8478
5295	8480
5296	8482
5297	8483
5298	8485
5299	8486
5300	8487
5301	8488
5302	8489
5303	8490
5304	8491
5305	8492
5306	8493
5307	8496
5308	8498
5309	8499
5310	8502
5311	8503
5312	8504
5313	8506
5314	8507
5315	8508
5316	8510
5317	8513
5318	8520
5319	8521
5320	8522
5321	8523
5322	8524
5323	8525
5324	8527
5325	8528
5326	8529
5327	8531
5328	8532
5329	8533
5330	8534
5331	8535
5332	8537
5333	8540
5334	8541
5335	8542
5336	8543
5337	8545
5338	8546
5339	8547
5340	8549
5341	8550
5342	8551
5343	8555
5344	8556
5345	8558
5346	8559
5347	8560
5348	8561
5349	8562
5350	8563
5351	8565
5352	8567
5353	8569
5354	8570
5355	8574
5356	8575
5357	8577
5358	8579
5359	8581
5360	8582
5361	8585
5362	8586
5363	8588
5364	8592
5365	8593
5366	8594
5367	8598
5368	8601
5369	8602
5370	8603
5371	8609
5372	8610
5373	8611
5374	8613
5375	8614
5376	8616
5377	8619
5378	8620
5379	8621
5380	8622
5381	8624
5382	8625
5383	8626
5384	8627
5385	8630
5386	8632
5387	8635
5388	8636
5389	8637
5390	8638
5391	8640
5392	8641
5393	8643
5394	8644
5395	8645
5396	8652
5397	8655
5398	8657
5399	8660
5400	8661
5401	8662
5402	8663
5403	8668
5404	8669
5405	8670
5406	8672
5407	8675
5408	8679
5409	8680
5410	8681
5411	8682
5412	8683
5413	8685
5414	8686
5415	8687
5416	8688
5417	8689
5418	8691
5419	8695
5420	8696
5421	8699
5422	8700
5423	8701
5424	8702
5425	8703
5426	8704
5427	8706
5428	8708
5429	8709
5430	8711
5431	8712
5432	8713
5433	8714
5434	8716
5435	8718
5436	8719
5437	8720
5438	8725
5439	8727
5440	8728
5441	8729
5442	8733
5443	8736
5444	8738
5445	8739
5446	8743
5447	8745
5448	8751
5449	8754
5450	8755
5451	8756
5452	8758
5453	8759
5454	8760
5455	8761
5456	8762
5457	8764
5458	8765
5459	8766
5460	8767
5461	8768
5462	8770
5463	8772
5464	8773
5465	8775
5466	8776
5467	8777
5468	8778
5469	8779
5470	8782
5471	8783
5472	8784
5473	8789
5474	8792
5475	8794
5476	8804
5477	8805
5478	8806
5479	8807
5480	8809
5481	8812
5482	8813
5483	8815
5484	8818
5485	8826
5486	8831
5487	8832
5488	8834
5489	8835
5490	8838
5491	8840
5492	8841
5493	8842
5494	8844
5495	8846
5496	8847
5497	8851
5498	8853
5499	8854
5500	8855
5501	8859
5502	8860
5503	8861
5504	8862
5505	8863
5506	8864
5507	8866
5508	8868
5509	8872
5510	8873
5511	8874
5512	8875
5513	8876
5514	8878
5515	8880
5516	8885
5517	8887
5518	8888
5519	8889
5520	8890
5521	8893
5522	8900
5523	8902
5524	8906
5525	8907
5526	8908
5527	8909
5528	8910
5529	8912
5530	8913
5531	8914
5532	8915
5533	8916
5534	8921
5535	8922
5536	8923
5537	8926
5538	8930
5539	8931
5540	8934
5541	8935
5542	8936
5543	8937
5544	8938
5545	8941
5546	8942
5547	8943
5548	8944
5549	8945
5550	8946
5551	8950
5552	8951
5553	8953
5554	8959
5555	8965
5556	8966
5557	8967
5558	8979
5559	8981
5560	8984
5561	8992
5562	8995
5563	8997
5564	8999
5565	9000
5566	9001
5567	9002
5568	9004
5569	9006
5570	9007
5571	9008
5572	9009
5573	9018
5574	9019
5575	9021
5576	9023
5577	9027
5578	9038
5579	9041
5580	9042
5581	9043
5582	9044
5583	9050
5584	9051
5585	9053
5586	9054
5587	9055
5588	9056
5589	9057
5590	9058
5591	9063
5592	9066
5593	9068
5594	9069
5595	9072
5596	9074
5597	9075
5598	9077
5599	9081
5600	9082
5601	9085
5602	9086
5603	9087
5604	9088
5605	9089
5606	9091
5607	9092
5608	9094
5609	9095
5610	9101
5611	9102
5612	9103
5613	9105
5614	9107
5615	9108
5616	9109
5617	9110
5618	9111
5619	9112
5620	9113
5621	9114
5622	9115
5623	9116
5624	9117
5625	9120
5626	9121
5627	9122
5628	9123
5629	9124
5630	9125
5631	9126
5632	9127
5633	9128
5634	9133
5635	9134
5636	9136
5637	9138
5638	9139
5639	9140
5640	9144
5641	9147
5642	9150
5643	9153
5644	9161
5645	9162
5646	9163
5647	9166
5648	9169
5649	9174
5650	9175
5651	9178
5652	9180
5653	9183
5654	9184
5655	9190
5656	9191
5657	9197
5658	9203
5659	9211
5660	9212
5661	9213
5662	9214
5663	9217
5664	9219
5665	9220
5666	9222
5667	9225
5668	9226
5669	9230
5670	9231
5671	9233
5672	9236
5673	9240
5674	9241
5675	9246
5676	9247
5677	9248
5678	9249
5679	9259
5680	9260
5681	9265
5682	9266
5683	9268
5684	9272
5685	9273
5686	9274
5687	9277
5688	9280
5689	9281
5690	9283
5691	9284
5692	9285
5693	9286
5694	9287
5695	9288
5696	9300
5697	9301
5698	9304
5699	9305
5700	9307
5701	9309
5702	9310
5703	9312
5704	9314
5705	9317
5706	9323
5707	9324
5708	9325
5709	9326
5710	9337
5711	9339
5712	9343
5713	9346
5714	9349
5715	9350
5716	9352
5717	9354
5718	9355
5719	9360
5720	9362
5721	9365
5722	9366
5723	9376
5724	9380
5725	9382
5726	9383
5727	9384
5728	9386
5729	9389
5730	9391
5731	9394
5732	9396
5733	9407
5734	9412
5735	9413
5736	9414
5737	9417
5738	9427
5739	9430
5740	9431
5741	9434
5742	9439
5743	9441
5744	9447
5745	9449
5746	9455
5747	9456
5748	9458
5749	9460
5750	9461
5751	9463
5752	9464
5753	9466
5754	9467
5755	9469
5756	9475
5757	9476
5758	9479
5759	9480
5760	9486
5761	9492
5762	9493
5763	9495
5764	9496
5765	9500
5766	9503
5767	9504
5768	9511
5769	9512
5770	9513
5771	9514
5772	9515
5773	9516
5774	9517
5775	9521
5776	9526
5777	9537
5778	9539
5779	9541
5780	9542
5781	9552
5782	9553
5783	9555
5784	9557
5785	9559
5786	9560
5787	9561
5788	9562
5789	9563
5790	9566
5791	9574
5792	9575
5793	9576
5794	9582
5795	9584
5796	9589
5797	9590
5798	9597
5799	9600
5800	9604
5801	9606
5802	9608
5803	9609
5804	9611
5805	9612
5806	9613
5807	9616
5808	9618
5809	9619
5810	9623
5811	9625
5812	9635
5813	9636
5814	9641
5815	9644
5816	9645
5817	9657
5818	9658
5819	9659
5820	9666
5821	9667
5822	9671
5823	9672
5824	9675
5825	9676
5826	9677
5827	9678
5828	9680
5829	9681
5830	9691
5831	9692
5832	9694
5833	9699
5834	9702
5835	9704
5836	9706
5837	9710
5838	9718
5839	9720
5840	9721
5841	9724
5842	9726
5843	9727
5844	9728
5845	9729
5846	9730
5847	9732
5848	9734
5849	9735
5850	9736
5851	9738
5852	9739
5853	9740
5854	9743
5855	9744
5856	9749
5857	9751
5858	9752
5859	9753
5860	9755
5861	9759
5862	9762
5863	9770
5864	9773
5865	9776
5866	9777
5867	9778
5868	9779
5869	9783
5870	9786
5871	9788
5872	9790
5873	9791
5874	9792
5875	9793
5876	9794
5877	9796
5878	9797
5879	9798
5880	9800
5881	9801
5882	9803
5883	9807
5884	9812
5885	9813
5886	9814
5887	9815
5888	9816
5889	9820
5890	9822
5891	9823
5892	9827
5893	9828
5894	9829
5895	9830
5896	9831
5897	9832
5898	9833
5899	9834
5900	9836
5901	9838
5902	9839
5903	9840
5904	9841
5905	9842
5906	9843
5907	9845
5908	9846
5909	9847
5910	9848
5911	9849
5912	9850
5913	9851
5914	9852
5915	9853
5916	9854
5917	9856
5918	9859
5919	9860
5920	9862
5921	9863
5922	9864
5923	9865
5924	9866
5925	9867
5926	9868
5927	9869
5928	9870
5929	9871
5930	9873
5931	9874
5932	9875
5933	9878
5934	9880
5935	9881
5936	9882
5937	9883
5938	9885
5939	9887
5940	9889
5941	9890
5942	9895
5943	9896
5944	9897
5945	9898
5946	9899
5947	9901
5948	9902
5949	9903
5950	9904
5951	9905
5952	9906
5953	9907
5954	9908
5955	9909
5956	9910
5957	9912
5958	9913
5959	9914
5960	9915
5961	9916
5962	9917
5963	9918
5964	9919
5965	9920
5966	9921
5967	9922
5968	9923
5969	9924
5970	9926
5971	9928
5972	9929
5973	9930
5974	9931
5975	9933
5976	9934
5977	9935
5978	9936
5979	9938
5980	9939
5981	9940
5982	9942
5983	9946
5984	9947
5985	9948
5986	9951
5987	9955
5988	9956
5989	9958
5990	9959
5991	9960
5992	9961
5993	9963
5994	9964
5995	9965
5996	9966
5997	9967
5998	9968
5999	9970
6000	9972
6001	9975
6002	9976
6003	9977
6004	9978
6005	9979
6006	9980
6007	9983
6008	9985
6009	9986
6010	9987
6011	9988
6012	9989
6013	9990
6014	9992
6015	9993
6016	9995
6017	9996
6018	9997
6019	9998
6020	9999
6021	10000
6022	10001
6023	10002
6024	10004
6025	10005
6026	10006
6027	10007
6028	10011
6029	10012
6030	10014
6031	10016
6032	10017
6033	10018
6034	10019
6035	10020
6036	10021
6037	10022
6038	10024
6039	10026
6040	10027
6041	10028
6042	10029
6043	10030
6044	10032
6045	10033
6046	10034
6047	10036
6048	10037
6049	10038
6050	10039
6051	10040
6052	10041
6053	10043
6054	10044
6055	10046
6056	10047
6057	10048
6058	10050
6059	10052
6060	10053
6061	10054
6062	10055
6063	10056
6064	10057
6065	10060
6066	10061
6067	10062
6068	10063
6069	10064
6070	10065
6071	10066
6072	10067
6073	10068
6074	10069
6075	10070
6076	10071
6077	10072
6078	10073
6079	10074
6080	10075
6081	10076
6082	10077
6083	10078
6084	10079
6085	10080
6086	10082
6087	10083
6088	10086
6089	10087
6090	10088
6091	10089
6092	10090
6093	10092
6094	10093
6095	10094
6096	10095
6097	10096
6098	10099
6099	10103
6100	10105
6101	10106
6102	10107
6103	10108
6104	10109
6105	10111
6106	10112
6107	10114
6108	10115
6109	10118
6110	10119
6111	10120
6112	10121
6113	10122
6114	10124
6115	10125
6116	10129
6117	10130
6118	10132
6119	10133
6120	10134
6121	10136
6122	10137
6123	10138
6124	10139
6125	10140
6126	10141
6127	10143
6128	10144
6129	10145
6130	10146
6131	10149
6132	10150
6133	10151
6134	10152
6135	10153
6136	10154
6137	10155
6138	10156
6139	10158
6140	10159
6141	10161
6142	10162
6143	10165
6144	10167
6145	10169
6146	10170
6147	10172
6148	10175
6149	10176
6150	10177
6151	10178
6152	10179
6153	10180
6154	10182
6155	10184
6156	10185
6157	10186
6158	10187
6159	10188
6160	10189
6161	10190
6162	10193
6163	10194
6164	10196
6165	10197
6166	10198
6167	10201
6168	10203
6169	10204
6170	10206
6171	10209
6172	10211
6173	10212
6174	10213
6175	10215
6176	10217
6177	10218
6178	10224
6179	10226
6180	10227
6181	10228
6182	10230
6183	10232
6184	10233
6185	10235
6186	10236
6187	10237
6188	10238
6189	10239
6190	10242
6191	10243
6192	10244
6193	10245
6194	10246
6195	10247
6196	10248
6197	10249
6198	10251
6199	10253
6200	10254
6201	10256
6202	10257
6203	10258
6204	10259
6205	10260
6206	10261
6207	10262
6208	10264
6209	10267
6210	10269
6211	10271
6212	10273
6213	10275
6214	10276
6215	10278
6216	10280
6217	10282
6218	10283
6219	10285
6220	10287
6221	10289
6222	10290
6223	10293
6224	10294
6225	10295
6226	10296
6227	10298
6228	10299
6229	10301
6230	10303
6231	10304
6232	10305
6233	10306
6234	10307
6235	10308
6236	10311
6237	10312
6238	10313
6239	10314
6240	10315
6241	10318
6242	10320
6243	10321
6244	10322
6245	10326
6246	10327
6247	10328
6248	10330
6249	10331
6250	10332
6251	10335
6252	10336
6253	10340
6254	10342
6255	10344
6256	10345
6257	10346
6258	10347
6259	10348
6260	10350
6261	10352
6262	10354
6263	10355
6264	10356
6265	10357
6266	10358
6267	10359
6268	10362
6269	10363
6270	10364
6271	10365
6272	10369
6273	10372
6274	10375
6275	10376
6276	10377
6277	10380
6278	10381
6279	10382
6280	10383
6281	10384
6282	10385
6283	10386
6284	10387
6285	10388
6286	10389
6287	10390
6288	10392
6289	10394
6290	10396
6291	10397
6292	10399
6293	10401
6294	10403
6295	10407
6296	10412
6297	10413
6298	10415
6299	10420
6300	10422
6301	10424
6302	10426
6303	10427
6304	10432
6305	10436
6306	10437
6307	10438
6308	10439
6309	10440
6310	10441
6311	10444
6312	10445
6313	10449
6314	10450
6315	10451
6316	10452
6317	10453
6318	10455
6319	10456
6320	10458
6321	10459
6322	10460
6323	10461
6324	10465
6325	10467
6326	10468
6327	10473
6328	10474
6329	10475
6330	10477
6331	10482
6332	10483
6333	10484
6334	10488
6335	10489
6336	10491
6337	10493
6338	10494
6339	10495
6340	10496
6341	10497
6342	10498
6343	10499
6344	10500
6345	10503
6346	10504
6347	10506
6348	10508
6349	10509
6350	10510
6351	10511
6352	10512
6353	10515
6354	10516
6355	10518
6356	10519
6357	10520
6358	10521
6359	10522
6360	10523
6361	10524
6362	10527
6363	10528
6364	10529
6365	10530
6366	10531
6367	10532
6368	10533
6369	10535
6370	10536
6371	10538
6372	10540
6373	10541
6374	10542
6375	10543
6376	10544
6377	10546
6378	10547
6379	10548
6380	10550
6381	10552
6382	10555
6383	10561
6384	10562
6385	10563
6386	10568
6387	10570
6388	10572
6389	10573
6390	10574
6391	10575
6392	10578
6393	10580
6394	10581
6395	10582
6396	10584
6397	10585
6398	10586
6399	10588
6400	10589
6401	10590
6402	10591
6403	10592
6404	10593
6405	10594
6406	10596
6407	10600
6408	10603
6409	10604
6410	10605
6411	10606
6412	10607
6413	10608
6414	10609
6415	10610
6416	10611
6417	10613
6418	10615
6419	10616
6420	10617
6421	10618
6422	10619
6423	10620
6424	10621
6425	10622
6426	10623
6427	10624
6428	10625
6429	10627
6430	10629
6431	10630
6432	10631
6433	10633
6434	10634
6435	10638
6436	10639
6437	10643
6438	10644
6439	10646
6440	10648
6441	10650
6442	10652
6443	10655
6444	10658
6445	10661
6446	10663
6447	10664
6448	10665
6449	10666
6450	10667
6451	10669
6452	10670
6453	10671
6454	10674
6455	10675
6456	10676
6457	10678
6458	10680
6459	10682
6460	10683
6461	10685
6462	10690
6463	10692
6464	10693
6465	10694
6466	10695
6467	10696
6468	10697
6469	10698
6470	10701
6471	10704
6472	10706
6473	10707
6474	10709
6475	10710
6476	10712
6477	10713
6478	10717
6479	10718
6480	10719
6481	10720
6482	10722
6483	10724
6484	10729
6485	10730
6486	10731
6487	10732
6488	10736
6489	10737
6490	10738
6491	10739
6492	10740
6493	10742
6494	10743
6495	10746
6496	10747
6497	10749
6498	10750
6499	10752
6500	10753
6501	10754
6502	10757
6503	10758
6504	10759
6505	10760
6506	10761
6507	10762
6508	10764
6509	10766
6510	10767
6511	10768
6512	10770
6513	10771
6514	10772
6515	10774
6516	10775
6517	10776
6518	10777
6519	10778
6520	10780
6521	10781
6522	10782
6523	10783
6524	10786
6525	10787
6526	10789
6527	10792
6528	10793
6529	10796
6530	10797
6531	10799
6532	10803
6533	10804
6534	10805
6535	10806
6536	10807
6537	10812
6538	10814
6539	10815
6540	10816
6541	10818
6542	10819
6543	10822
6544	10823
6545	10824
6546	10826
6547	10828
6548	10830
6549	10832
6550	10837
6551	10840
6552	10841
6553	10842
6554	10843
6555	10846
6556	10847
6557	10850
6558	10855
6559	10856
6560	10857
6561	10858
6562	10859
6563	10860
6564	10864
6565	10873
6566	10878
6567	10881
6568	10882
6569	10884
6570	10886
6571	10887
6572	10888
6573	10904
6574	10905
6575	10906
6576	10908
6577	10909
6578	10910
6579	10911
6580	10915
6581	10917
6582	10918
6583	10919
6584	10920
6585	10923
6586	10925
6587	10926
6588	10928
6589	10931
6590	10932
6591	10934
6592	10935
6593	10936
6594	10942
6595	10950
6596	10951
6597	10952
6598	10954
6599	10956
6600	10957
6601	10958
6602	10959
6603	10960
6604	10961
6605	10962
6606	10963
6607	10967
6608	10968
6609	10970
6610	10971
6611	10972
6612	10973
6613	10974
6614	10975
6615	10977
6616	10980
6617	10981
6618	10982
6619	10983
6620	10984
6621	10987
6622	10988
6623	10990
6624	10994
6625	10995
6626	10997
6627	11002
6628	11004
6629	11005
6630	11006
6631	11010
6632	11014
6633	11017
6634	11020
6635	11022
6636	11023
6637	11024
6638	11030
6639	11031
6640	11033
6641	11034
6642	11037
6643	11038
6644	11040
6645	11042
6646	11043
6647	11044
6648	11045
6649	11048
6650	11049
6651	11052
6652	11055
6653	11058
6654	11062
6655	11063
6656	11064
6657	11066
6658	11070
6659	11071
6660	11072
6661	11073
6662	11074
6663	11075
6664	11076
6665	11077
6666	11078
6667	11079
6668	11081
6669	11083
6670	11084
6671	11086
6672	11087
6673	11092
6674	11094
6675	11100
6676	11103
6677	11108
6678	11110
6679	11112
6680	11113
6681	11116
6682	11117
6683	11120
6684	11121
6685	11123
6686	11125
6687	11128
6688	11130
6689	11131
6690	11133
6691	11134
6692	11135
6693	11136
6694	11137
6695	11140
6696	11141
6697	11142
6698	11143
6699	11144
6700	11145
6701	11151
6702	11152
6703	11155
6704	11156
6705	11159
6706	11161
6707	11162
6708	11174
6709	11179
6710	11181
6711	11182
6712	11185
6713	11197
6714	11200
6715	11201
6716	11205
6717	11210
6718	11211
6719	11212
6720	11213
6721	11216
6722	11223
6723	11224
6724	11225
6725	11226
6726	11230
6727	11234
6728	11235
6729	11238
6730	11239
6731	11241
6732	11247
6733	11250
6734	11253
6735	11254
6736	11257
6737	11275
6738	11276
6739	11277
6740	11280
6741	11285
6742	11293
6743	11294
6744	11299
6745	11300
6746	11303
6747	11304
6748	11306
6749	11307
6750	11308
6751	11311
6752	11314
6753	11317
6754	11318
6755	11320
6756	11321
6757	11325
6758	11332
6759	11333
6760	11337
6761	11340
6762	11345
6763	11346
6764	11351
6765	11352
6766	11357
6767	11358
6768	11362
6769	11369
6770	11374
6771	11378
6772	11379
6773	11380
6774	11386
6775	11395
6776	11397
6777	11400
6778	11404
6779	11405
6780	11406
6781	11407
6782	11408
6783	11411
6784	11412
6785	11414
6786	11416
6787	11418
6788	11420
6789	11422
6790	11427
6791	11428
6792	11429
6793	11432
6794	11435
6795	11436
6796	11438
6797	11440
6798	11441
6799	11446
6800	11449
6801	11450
6802	11451
6803	11453
6804	11454
6805	11455
6806	11473
6807	11474
6808	11477
6809	11478
6810	11485
6811	11486
6812	11487
6813	11488
6814	11499
6815	11500
6816	11501
6817	11503
6818	11505
6819	11506
6820	11518
6821	11526
6822	11527
6823	11528
6824	11529
6825	11531
6826	11532
6827	11533
6828	11534
6829	11538
6830	11541
6831	11545
6832	11549
6833	11550
6834	11551
6835	11557
6836	11558
6837	11560
6838	11562
6839	11564
6840	11567
6841	11569
6842	11575
6843	11580
6844	11585
6845	11586
6846	11587
6847	11588
6848	11590
6849	11596
6850	11597
6851	11598
6852	11599
6853	11600
6854	11603
6855	11604
6856	11605
6857	11606
6858	11608
6859	11610
6860	11611
6861	11613
6862	11614
6863	11615
6864	11616
6865	11618
6866	11620
6867	11623
6868	11624
6869	11637
6870	11641
6871	11645
6872	11647
6873	11648
6874	11654
6875	11658
6876	11659
6877	11661
6878	11664
6879	11666
6880	11671
6881	11674
6882	11675
6883	11678
6884	11681
6885	11682
6886	11685
6887	11693
6888	11695
6889	11696
6890	11702
6891	11704
6892	11705
6893	11711
6894	11713
6895	11716
6896	11718
6897	11724
6898	11727
6899	11728
6900	11732
6901	11734
6902	11736
6903	11738
6904	11739
6905	11741
6906	11742
6907	11744
6908	11745
6909	11753
6910	11754
6911	11755
6912	11756
6913	11758
6914	11759
6915	11764
6916	11768
6917	11771
6918	11773
6919	11782
6920	11788
6921	11789
6922	11790
6923	11791
6924	11792
6925	11793
6926	11794
6927	11798
6928	11799
6929	11800
6930	11801
6931	11802
6932	11803
6933	11804
6934	11805
6935	11806
6936	11807
6937	11808
6938	11811
6939	11813
6940	11818
6941	11820
6942	11821
6943	11822
6944	11824
6945	11825
6946	11827
6947	11828
6948	11829
6949	11830
6950	11832
6951	11833
6952	11834
6953	11836
6954	11837
6955	11840
6956	11841
6957	11844
6958	11845
6959	11846
6960	11847
6961	11849
6962	11850
6963	11851
6964	11852
6965	11855
6966	11856
6967	11858
6968	11859
6969	11861
6970	11863
6971	11864
6972	11865
6973	11866
6974	11867
6975	11869
6976	11870
6977	11871
6978	11872
6979	11873
6980	11874
6981	11875
6982	11877
6983	11878
6984	11879
6985	11881
6986	11882
6987	11883
6988	11884
6989	11885
6990	11886
6991	11887
6992	11888
6993	11889
6994	11890
6995	11891
6996	11892
6997	11894
6998	11896
6999	11899
7000	11900
7001	11901
7002	11903
7003	11904
7004	11905
7005	11906
7006	11907
7007	11908
7008	11909
7009	11911
7010	11914
7011	11915
7012	11916
7013	11919
7014	11921
7015	11922
7016	11923
7017	11925
7018	11926
7019	11928
7020	11930
7021	11931
7022	11933
7023	11934
7024	11935
7025	11936
7026	11937
7027	11938
7028	11940
7029	11942
7030	11943
7031	11944
7032	11945
7033	11946
7034	11947
7035	11948
7036	11950
7037	11954
7038	11955
7039	11957
7040	11958
7041	11960
7042	11961
7043	11962
7044	11964
7045	11965
7046	11966
7047	11968
7048	11971
7049	11973
7050	11974
7051	11975
7052	11976
7053	11977
7054	11978
7055	11979
7056	11980
7057	11981
7058	11982
7059	11983
7060	11984
7061	11985
7062	11986
7063	11987
7064	11988
7065	11989
7066	11990
7067	11993
7068	11994
7069	11996
7070	11997
7071	11998
7072	11999
7073	12000
7074	12001
7075	12002
7076	12003
7077	12004
7078	12006
7079	12007
7080	12008
7081	12010
7082	12012
7083	12013
7084	12017
7085	12018
7086	12019
7087	12021
7088	12022
7089	12023
7090	12024
7091	12025
7092	12026
7093	12027
7094	12028
7095	12029
7096	12030
7097	12031
7098	12032
7099	12035
7100	12036
7101	12037
7102	12038
7103	12039
7104	12040
7105	12041
7106	12042
7107	12043
7108	12044
7109	12045
7110	12046
7111	12047
7112	12048
7113	12049
7114	12051
7115	12052
7116	12054
7117	12055
7118	12056
7119	12057
7120	12058
7121	12060
7122	12061
7123	12065
7124	12066
7125	12069
7126	12070
7127	12071
7128	12072
7129	12073
7130	12074
7131	12076
7132	12077
7133	12078
7134	12079
7135	12080
7136	12081
7137	12082
7138	12084
7139	12085
7140	12088
7141	12089
7142	12090
7143	12091
7144	12092
7145	12093
7146	12094
7147	12095
7148	12097
7149	12099
7150	12100
7151	12101
7152	12102
7153	12106
7154	12107
7155	12108
7156	12110
7157	12111
7158	12112
7159	12113
7160	12115
7161	12117
7162	12118
7163	12119
7164	12121
7165	12123
7166	12124
7167	12125
7168	12126
7169	12127
7170	12128
7171	12129
7172	12130
7173	12131
7174	12132
7175	12135
7176	12138
7177	12139
7178	12140
7179	12143
7180	12145
7181	12147
7182	12148
7183	12149
7184	12150
7185	12151
7186	12152
7187	12154
7188	12155
7189	12156
7190	12157
7191	12158
7192	12159
7193	12160
7194	12161
7195	12162
7196	12163
7197	12166
7198	12168
7199	12169
7200	12171
7201	12172
7202	12173
7203	12176
7204	12178
7205	12179
7206	12180
7207	12181
7208	12183
7209	12185
7210	12188
7211	12189
7212	12190
7213	12191
7214	12193
7215	12194
7216	12197
7217	12199
7218	12201
7219	12203
7220	12204
7221	12205
7222	12206
7223	12207
7224	12208
7225	12209
7226	12210
7227	12213
7228	12215
7229	12216
7230	12217
7231	12219
7232	12220
7233	12221
7234	12222
7235	12223
7236	12224
7237	12225
7238	12226
7239	12227
7240	12228
7241	12229
7242	12230
7243	12231
7244	12234
7245	12235
7246	12236
7247	12237
7248	12240
7249	12241
7250	12243
7251	12245
7252	12246
7253	12247
7254	12249
7255	12250
7256	12251
7257	12252
7258	12254
7259	12256
7260	12257
7261	12258
7262	12259
7263	12260
7264	12261
7265	12265
7266	12266
7267	12270
7268	12272
7269	12273
7270	12276
7271	12277
7272	12278
7273	12279
7274	12282
7275	12283
7276	12285
7277	12286
7278	12287
7279	12288
7280	12290
7281	12291
7282	12292
7283	12293
7284	12294
7285	12296
7286	12297
7287	12298
7288	12300
7289	12301
7290	12302
7291	12303
7292	12306
7293	12307
7294	12308
7295	12309
7296	12310
7297	12312
7298	12314
7299	12315
7300	12316
7301	12318
7302	12319
7303	12320
7304	12321
7305	12322
7306	12326
7307	12327
7308	12328
7309	12330
7310	12331
7311	12332
7312	12334
7313	12335
7314	12336
7315	12337
7316	12338
7317	12339
7318	12341
7319	12342
7320	12343
7321	12344
7322	12345
7323	12348
7324	12349
7325	12350
7326	12351
7327	12352
7328	12353
7329	12354
7330	12356
7331	12359
7332	12361
7333	12363
7334	12365
7335	12366
7336	12367
7337	12368
7338	12371
7339	12372
7340	12373
7341	12380
7342	12383
7343	12385
7344	12386
7345	12389
7346	12390
7347	12391
7348	12392
7349	12394
7350	12396
7351	12397
7352	12398
7353	12399
7354	12400
7355	12402
7356	12404
7357	12407
7358	12410
7359	12411
7360	12413
7361	12417
7362	12418
7363	12419
7364	12420
7365	12421
7366	12424
7367	12426
7368	12428
7369	12429
7370	12430
7371	12435
7372	12437
7373	12438
7374	12440
7375	12441
7376	12442
7377	12444
7378	12445
7379	12446
7380	12447
7381	12448
7382	12451
7383	12453
7384	12454
7385	12455
7386	12456
7387	12459
7388	12460
7389	12461
7390	12463
7391	12464
7392	12465
7393	12466
7394	12468
7395	12470
7396	12471
7397	12472
7398	12473
7399	12476
7400	12478
7401	12479
7402	12482
7403	12483
7404	12484
7405	12486
7406	12489
7407	12490
7408	12491
7409	12492
7410	12500
7411	12502
7412	12505
7413	12506
7414	12507
7415	12508
7416	12510
7417	12512
7418	12514
7419	12516
7420	12517
7421	12519
7422	12521
7423	12522
7424	12527
7425	12528
7426	12529
7427	12530
7428	12532
7429	12533
7430	12534
7431	12535
7432	12536
7433	12538
7434	12541
7435	12542
7436	12544
7437	12545
7438	12546
7439	12548
7440	12549
7441	12550
7442	12551
7443	12553
7444	12554
7445	12558
7446	12559
7447	12560
7448	12562
7449	12563
7450	12565
7451	12567
7452	12568
7453	12569
7454	12575
7455	12576
7456	12577
7457	12580
7458	12583
7459	12585
7460	12586
7461	12587
7462	12590
7463	12592
7464	12593
7465	12594
7466	12595
7467	12596
7468	12597
7469	12601
7470	12603
7471	12606
7472	12608
7473	12609
7474	12610
7475	12611
7476	12612
7477	12614
7478	12616
7479	12617
7480	12620
7481	12622
7482	12623
7483	12625
7484	12626
7485	12627
7486	12629
7487	12630
7488	12632
7489	12634
7490	12640
7491	12641
7492	12642
7493	12643
7494	12644
7495	12645
7496	12646
7497	12648
7498	12649
7499	12650
7500	12651
7501	12652
7502	12655
7503	12659
7504	12660
7505	12661
7506	12662
7507	12664
7508	12665
7509	12668
7510	12670
7511	12671
7512	12672
7513	12675
7514	12676
7515	12677
7516	12678
7517	12679
7518	12680
7519	12681
7520	12682
7521	12689
7522	12690
7523	12691
7524	12693
7525	12694
7526	12695
7527	12696
7528	12697
7529	12698
7530	12700
7531	12701
7532	12702
7533	12704
7534	12705
7535	12706
7536	12707
7537	12708
7538	12710
7539	12715
7540	12721
7541	12723
7542	12727
7543	12731
7544	12735
7545	12740
7546	12747
7547	12749
7548	12750
7549	12753
7550	12754
7551	12756
7552	12758
7553	12760
7554	12761
7555	12766
7556	12769
7557	12770
7558	12771
7559	12773
7560	12774
7561	12776
7562	12777
7563	12778
7564	12779
7565	12780
7566	12781
7567	12782
7568	12785
7569	12786
7570	12788
7571	12796
7572	12801
7573	12805
7574	12806
7575	12809
7576	12814
7577	12815
7578	12816
7579	12817
7580	12819
7581	12828
7582	12830
7583	12834
7584	12836
7585	12838
7586	12841
7587	12848
7588	12853
7589	12855
7590	12858
7591	12859
7592	12862
7593	12864
7594	12868
7595	12870
7596	12871
7597	12872
7598	12873
7599	12876
7600	12877
7601	12880
7602	12881
7603	12882
7604	12883
7605	12884
7606	12886
7607	12891
7608	12892
7609	12893
7610	12894
7611	12900
7612	12901
7613	12902
7614	12903
7615	12904
7616	12905
7617	12909
7618	12912
7619	12913
7620	12916
7621	12917
7622	12922
7623	12923
7624	12925
7625	12926
7626	12927
7627	12928
7628	12933
7629	12934
7630	12935
7631	12937
7632	12940
7633	12941
7634	12943
7635	12946
7636	12947
7637	12948
7638	12950
7639	12954
7640	12955
7641	12956
7642	12958
7643	12960
7644	12964
7645	12965
7646	12966
7647	12968
7648	12970
7649	12971
7650	12973
7651	12974
7652	12980
7653	12981
7654	12982
7655	12984
7656	12988
7657	12990
7658	12991
7659	12992
7660	12996
7661	12997
7662	12998
7663	12999
7664	13002
7665	13003
7666	13006
7667	13008
7668	13010
7669	13012
7670	13013
7671	13014
7672	13015
7673	13020
7674	13021
7675	13025
7676	13026
7677	13027
7678	13028
7679	13029
7680	13030
7681	13031
7682	13032
7683	13034
7684	13035
7685	13036
7686	13042
7687	13044
7688	13045
7689	13046
7690	13052
7691	13053
7692	13054
7693	13058
7694	13060
7695	13062
7696	13063
7697	13065
7698	13066
7699	13067
7700	13069
7701	13070
7702	13071
7703	13073
7704	13074
7705	13077
7706	13080
7707	13081
7708	13082
7709	13083
7710	13084
7711	13086
7712	13087
7713	13088
7714	13091
7715	13092
7716	13093
7717	13094
7718	13095
7719	13096
7720	13098
7721	13099
7722	13101
7723	13102
7724	13103
7725	13104
7726	13108
7727	13109
7728	13110
7729	13112
7730	13116
7731	13117
7732	13118
7733	13119
7734	13123
7735	13126
7736	13127
7737	13128
7738	13130
7739	13131
7740	13138
7741	13139
7742	13143
7743	13145
7744	13146
7745	13158
7746	13159
7747	13160
7748	13162
7749	13163
7750	13173
7751	13175
7752	13176
7753	13178
7754	13181
7755	13186
7756	13187
7757	13189
7758	13208
7759	13210
7760	13212
7761	13215
7762	13217
7763	13218
7764	13222
7765	13226
7766	13227
7767	13228
7768	13229
7769	13238
7770	13241
7771	13246
7772	13248
7773	13251
7774	13252
7775	13256
7776	13264
7777	13267
7778	13268
7779	13270
7780	13273
7781	13283
7782	13285
7783	13292
7784	13293
7785	13294
7786	13300
7787	13302
7788	13305
7789	13307
7790	13308
7791	13309
7792	13315
7793	13316
7794	13318
7795	13319
7796	13320
7797	13322
7798	13323
7799	13329
7800	13332
7801	13333
7802	13335
7803	13337
7804	13338
7805	13340
7806	13341
7807	13344
7808	13345
7809	13348
7810	13350
7811	13361
7812	13362
7813	13365
7814	13366
7815	13370
7816	13371
7817	13372
7818	13377
7819	13378
7820	13379
7821	13390
7822	13394
7823	13395
7824	13396
7825	13397
7826	13398
7827	13399
7828	13400
7829	13403
7830	13404
7831	13405
7832	13408
7833	13414
7834	13416
7835	13417
7836	13427
7837	13428
7838	13430
7839	13432
7840	13434
7841	13441
7842	13445
7843	13446
7844	13447
7845	13448
7846	13449
7847	13450
7848	13451
7849	13452
7850	13458
7851	13464
7852	13465
7853	13472
7854	13475
7855	13476
7856	13478
7857	13479
7858	13480
7859	13486
7860	13488
7861	13489
7862	13490
7863	13494
7864	13497
7865	13498
7866	13499
7867	13502
7868	13503
7869	13505
7870	13508
7871	13509
7872	13510
7873	13512
7874	13515
7875	13516
7876	13518
7877	13521
7878	13523
7879	13525
7880	13527
7881	13530
7882	13534
7883	13535
7884	13540
7885	13542
7886	13545
7887	13546
7888	13550
7889	13556
7890	13557
7891	13560
7892	13561
7893	13562
7894	13563
7895	13567
7896	13574
7897	13575
7898	13576
7899	13577
7900	13578
7901	13580
7902	13581
7903	13585
7904	13587
7905	13592
7906	13594
7907	13597
7908	13605
7909	13608
7910	13609
7911	13613
7912	13616
7913	13619
7914	13621
7915	13622
7916	13625
7917	13630
7918	13631
7919	13637
7920	13638
7921	13641
7922	13642
7923	13643
7924	13644
7925	13646
7926	13647
7927	13651
7928	13654
7929	13656
7930	13659
7931	13664
7932	13665
7933	13666
7934	13669
7935	13680
7936	13682
7937	13683
7938	13684
7939	13685
7940	13688
7941	13693
7942	13695
7943	13696
7944	13697
7945	13698
7946	13699
7947	13701
7948	13702
7949	13703
7950	13705
7951	13707
7952	13708
7953	13710
7954	13711
7955	13712
7956	13713
7957	13714
7958	13715
7959	13716
7960	13717
7961	13718
7962	13720
7963	13721
7964	13723
7965	13724
7966	13733
7967	13735
7968	13738
7969	13740
7970	13741
7971	13745
7972	13747
7973	13751
7974	13752
7975	13753
7976	13754
7977	13766
7978	13767
7979	13769
7980	13770
7981	13771
7982	13773
7983	13774
7984	13775
7985	13777
7986	13778
7987	13779
7988	13780
7989	13781
7990	13782
7991	13783
7992	13784
7993	13785
7994	13786
7995	13787
7996	13788
7997	13789
7998	13790
7999	13792
8000	13794
8001	13798
8002	13801
8003	13803
8004	13804
8005	13805
8006	13806
8007	13807
8008	13808
8009	13810
8010	13811
8011	13813
8012	13814
8013	13815
8014	13817
8015	13818
8016	13820
8017	13821
8018	13822
8019	13823
8020	13824
8021	13825
8022	13827
8023	13829
8024	13830
8025	13832
8026	13833
8027	13834
8028	13835
8029	13836
8030	13837
8031	13838
8032	13839
8033	13840
8034	13841
8035	13843
8036	13844
8037	13845
8038	13846
8039	13847
8040	13848
8041	13850
8042	13851
8043	13852
8044	13854
8045	13856
8046	13857
8047	13858
8048	13859
8049	13862
8050	13863
8051	13864
8052	13866
8053	13867
8054	13868
8055	13869
8056	13871
8057	13872
8058	13873
8059	13874
8060	13878
8061	13880
8062	13881
8063	13883
8064	13884
8065	13887
8066	13888
8067	13889
8068	13890
8069	13891
8070	13892
8071	13893
8072	13894
8073	13895
8074	13896
8075	13898
8076	13899
8077	13900
8078	13901
8079	13902
8080	13903
8081	13907
8082	13908
8083	13911
8084	13912
8085	13914
8086	13917
8087	13920
8088	13923
8089	13924
8090	13926
8091	13927
8092	13929
8093	13931
8094	13932
8095	13933
8096	13934
8097	13935
8098	13936
8099	13940
8100	13942
8101	13945
8102	13946
8103	13947
8104	13948
8105	13950
8106	13955
8107	13956
8108	13957
8109	13958
8110	13959
8111	13960
8112	13964
8113	13965
8114	13971
8115	13972
8116	13973
8117	13975
8118	13976
8119	13977
8120	13978
8121	13979
8122	13983
8123	13984
8124	13986
8125	13987
8126	13988
8127	13989
8128	13990
8129	13991
8130	13994
8131	13995
8132	13996
8133	13997
8134	13999
8135	14000
8136	14001
8137	14002
8138	14003
8139	14004
8140	14005
8141	14006
8142	14007
8143	14010
8144	14011
8145	14012
8146	14013
8147	14014
8148	14016
8149	14017
8150	14018
8151	14020
8152	14021
8153	14022
8154	14023
8155	14025
8156	14027
8157	14028
8158	14029
8159	14030
8160	14031
8161	14032
8162	14034
8163	14035
8164	14036
8165	14038
8166	14040
8167	14041
8168	14042
8169	14043
8170	14044
8171	14045
8172	14046
8173	14047
8174	14048
8175	14049
8176	14050
8177	14052
8178	14055
8179	14056
8180	14057
8181	14058
8182	14059
8183	14060
8184	14061
8185	14062
8186	14064
8187	14066
8188	14067
8189	14068
8190	14069
8191	14070
8192	14071
8193	14073
8194	14077
8195	14078
8196	14080
8197	14081
8198	14083
8199	14084
8200	14086
8201	14087
8202	14089
8203	14091
8204	14092
8205	14093
8206	14094
8207	14095
8208	14097
8209	14098
8210	14099
8211	14100
8212	14102
8213	14103
8214	14104
8215	14105
8216	14107
8217	14108
8218	14109
8219	14111
8220	14112
8221	14113
8222	14119
8223	14120
8224	14121
8225	14122
8226	14123
8227	14124
8228	14125
8229	14126
8230	14127
8231	14128
8232	14129
8233	14130
8234	14131
8235	14132
8236	14133
8237	14134
8238	14135
8239	14136
8240	14137
8241	14138
8242	14139
8243	14140
8244	14143
8245	14144
8246	14146
8247	14147
8248	14148
8249	14149
8250	14151
8251	14152
8252	14153
8253	14154
8254	14157
8255	14158
8256	14159
8257	14162
8258	14163
8259	14164
8260	14165
8261	14166
8262	14167
8263	14169
8264	14170
8265	14172
8266	14173
8267	14174
8268	14175
8269	14176
8270	14177
8271	14180
8272	14181
8273	14182
8274	14186
8275	14190
8276	14192
8277	14193
8278	14194
8279	14195
8280	14196
8281	14197
8282	14198
8283	14199
8284	14201
8285	14202
8286	14204
8287	14205
8288	14206
8289	14207
8290	14208
8291	14209
8292	14211
8293	14213
8294	14214
8295	14216
8296	14217
8297	14218
8298	14220
8299	14221
8300	14222
8301	14223
8302	14224
8303	14226
8304	14227
8305	14228
8306	14229
8307	14230
8308	14232
8309	14234
8310	14235
8311	14236
8312	14237
8313	14238
8314	14239
8315	14241
8316	14242
8317	14243
8318	14244
8319	14245
8320	14247
8321	14248
8322	14249
8323	14250
8324	14254
8325	14255
8326	14258
8327	14259
8328	14260
8329	14262
8330	14263
8331	14264
8332	14266
8333	14267
8334	14268
8335	14269
8336	14271
8337	14273
8338	14274
8339	14275
8340	14277
8341	14278
8342	14282
8343	14284
8344	14285
8345	14286
8346	14287
8347	14288
8348	14289
8349	14290
8350	14293
8351	14294
8352	14297
8353	14299
8354	14300
8355	14301
8356	14302
8357	14303
8358	14304
8359	14305
8360	14306
8361	14308
8362	14309
8363	14310
8364	14312
8365	14313
8366	14314
8367	14315
8368	14316
8369	14317
8370	14319
8371	14320
8372	14321
8373	14323
8374	14324
8375	14325
8376	14328
8377	14329
8378	14331
8379	14332
8380	14336
8381	14337
8382	14338
8383	14339
8384	14340
8385	14341
8386	14343
8387	14345
8388	14346
8389	14348
8390	14352
8391	14355
8392	14356
8393	14357
8394	14358
8395	14359
8396	14362
8397	14367
8398	14368
8399	14369
8400	14370
8401	14375
8402	14377
8403	14379
8404	14380
8405	14382
8406	14383
8407	14384
8408	14385
8409	14386
8410	14391
8411	14392
8412	14395
8413	14396
8414	14398
8415	14399
8416	14400
8417	14401
8418	14402
8419	14403
8420	14405
8421	14406
8422	14407
8423	14410
8424	14412
8425	14414
8426	14415
8427	14416
8428	14424
8429	14425
8430	14426
8431	14427
8432	14431
8433	14434
8434	14436
8435	14437
8436	14438
8437	14441
8438	14443
8439	14444
8440	14445
8441	14446
8442	14447
8443	14448
8444	14449
8445	14452
8446	14455
8447	14456
8448	14458
8449	14459
8450	14462
8451	14464
8452	14469
8453	14470
8454	14471
8455	14472
8456	14473
8457	14474
8458	14476
8459	14477
8460	14478
8461	14481
8462	14482
8463	14484
8464	14485
8465	14486
8466	14488
8467	14489
8468	14492
8469	14495
8470	14497
8471	14501
8472	14502
8473	14503
8474	14504
8475	14506
8476	14507
8477	14508
8478	14509
8479	14510
8480	14512
8481	14514
8482	14515
8483	14516
8484	14517
8485	14518
8486	14519
8487	14520
8488	14521
8489	14522
8490	14523
8491	14524
8492	14526
8493	14527
8494	14528
8495	14529
8496	14530
8497	14531
8498	14532
8499	14534
8500	14535
8501	14536
8502	14537
8503	14538
8504	14539
8505	14540
8506	14541
8507	14542
8508	14543
8509	14544
8510	14545
8511	14546
8512	14549
8513	14550
8514	14551
8515	14553
8516	14555
8517	14558
8518	14559
8519	14560
8520	14562
8521	14564
8522	14565
8523	14566
8524	14567
8525	14569
8526	14571
8527	14574
8528	14575
8529	14577
8530	14578
8531	14581
8532	14588
8533	14590
8534	14591
8535	14592
8536	14594
8537	14595
8538	14596
8539	14597
8540	14599
8541	14600
8542	14601
8543	14603
8544	14604
8545	14605
8546	14606
8547	14607
8548	14609
8549	14610
8550	14612
8551	14613
8552	14617
8553	14618
8554	14620
8555	14622
8556	14623
8557	14625
8558	14626
8559	14630
8560	14632
8561	14633
8562	14637
8563	14639
8564	14642
8565	14643
8566	14645
8567	14646
8568	14647
8569	14648
8570	14650
8571	14652
8572	14653
8573	14654
8574	14655
8575	14659
8576	14660
8577	14662
8578	14665
8579	14666
8580	14667
8581	14669
8582	14670
8583	14671
8584	14672
8585	14673
8586	14674
8587	14675
8588	14676
8589	14677
8590	14678
8591	14679
8592	14680
8593	14681
8594	14682
8595	14683
8596	14684
8597	14685
8598	14687
8599	14688
8600	14690
8601	14691
8602	14693
8603	14694
8604	14695
8605	14696
8606	14697
8607	14703
8608	14704
8609	14705
8610	14713
8611	14714
8612	14715
8613	14717
8614	14719
8615	14721
8616	14722
8617	14723
8618	14724
8619	14727
8620	14729
8621	14730
8622	14732
8623	14734
8624	14740
8625	14741
8626	14742
8627	14744
8628	14747
8629	14748
8630	14749
8631	14752
8632	14755
8633	14756
8634	14758
8635	14761
8636	14762
8637	14771
8638	14775
8639	14776
8640	14777
8641	14778
8642	14781
8643	14782
8644	14788
8645	14792
8646	14793
8647	14794
8648	14795
8649	14796
8650	14797
8651	14798
8652	14803
8653	14805
8654	14808
8655	14809
8656	14810
8657	14812
8658	14815
8659	14816
8660	14822
8661	14826
8662	14827
8663	14830
8664	14831
8665	14832
8666	14833
8667	14834
8668	14837
8669	14840
8670	14841
8671	14849
8672	14855
8673	14857
8674	14860
8675	14861
8676	14864
8677	14865
8678	14866
8679	14867
8680	14869
8681	14870
8682	14871
8683	14872
8684	14882
8685	14883
8686	14885
8687	14886
8688	14887
8689	14888
8690	14889
8691	14896
8692	14897
8693	14898
8694	14901
8695	14902
8696	14903
8697	14904
8698	14906
8699	14907
8700	14908
8701	14910
8702	14912
8703	14914
8704	14915
8705	14916
8706	14918
8707	14919
8708	14921
8709	14924
8710	14927
8711	14930
8712	14931
8713	14932
8714	14933
8715	14936
8716	14937
8717	14938
8718	14939
8719	14940
8720	14941
8721	14942
8722	14943
8723	14944
8724	14945
8725	14947
8726	14948
8727	14949
8728	14950
8729	14951
8730	14954
8731	14959
8732	14963
8733	14966
8734	14969
8735	14972
8736	14973
8737	14974
8738	14975
8739	14976
8740	14984
8741	14987
8742	14992
8743	14993
8744	14998
8745	14999
8746	15001
8747	15002
8748	15004
8749	15005
8750	15006
8751	15008
8752	15009
8753	15010
8754	15011
8755	15012
8756	15013
8757	15014
8758	15016
8759	15017
8760	15018
8761	15019
8762	15020
8763	15024
8764	15030
8765	15032
8766	15034
8767	15037
8768	15041
8769	15048
8770	15049
8771	15050
8772	15051
8773	15053
8774	15057
8775	15058
8776	15062
8777	15068
8778	15069
8779	15071
8780	15074
8781	15078
8782	15079
8783	15081
8784	15082
8785	15083
8786	15084
8787	15085
8788	15087
8789	15088
8790	15090
8791	15091
8792	15095
8793	15096
8794	15097
8795	15099
8796	15100
8797	15101
8798	15102
8799	15105
8800	15106
8801	15111
8802	15112
8803	15113
8804	15114
8805	15115
8806	15116
8807	15117
8808	15125
8809	15128
8810	15129
8811	15130
8812	15134
8813	15136
8814	15137
8815	15138
8816	15140
8817	15141
8818	15150
8819	15151
8820	15153
8821	15154
8822	15157
8823	15158
8824	15164
8825	15171
8826	15175
8827	15180
8828	15181
8829	15184
8830	15192
8831	15194
8832	15196
8833	15200
8834	15202
8835	15203
8836	15207
8837	15211
8838	15215
8839	15223
8840	15226
8841	15235
8842	15237
8843	15239
8844	15248
8845	15250
8846	15251
8847	15253
8848	15259
8849	15264
8850	15274
8851	15278
8852	15279
8853	15281
8854	15282
8855	15284
8856	15285
8857	15291
8858	15292
8859	15294
8860	15298
8861	15302
8862	15320
8863	15321
8864	15324
8865	15335
8866	15338
8867	15340
8868	15341
8869	15342
8870	15343
8871	15344
8872	15345
8873	15351
8874	15352
8875	15353
8876	15354
8877	15360
8878	15361
8879	15362
8880	15366
8881	15367
8882	15371
8883	15373
8884	15376
8885	15377
8886	15378
8887	15384
8888	15396
8889	15400
8890	15403
8891	15404
8892	15410
8893	15411
8894	15412
8895	15413
8896	15414
8897	15415
8898	15416
8899	15421
8900	15426
8901	15427
8902	15428
8903	15435
8904	15438
8905	15439
8906	15440
8907	15441
8908	15443
8909	15444
8910	15445
8911	15446
8912	15447
8913	15448
8914	15449
8915	15450
8916	15451
8917	15453
8918	15461
8919	15465
8920	15468
8921	15479
8922	15480
8923	15481
8924	15483
8925	15484
8926	15485
8927	15487
8928	15496
8929	15499
8930	15500
8931	15501
8932	15505
8933	15510
8934	15511
8935	15512
8936	15513
8937	15514
8938	15521
8939	15523
8940	15524
8941	15534
8942	15536
8943	15537
8944	15538
8945	15540
8946	15541
8947	15543
8948	15545
8949	15551
8950	15553
8951	15554
8952	15563
8953	15573
8954	15586
8955	15587
8956	15589
8957	15590
8958	15592
8959	15597
8960	15607
8961	15609
8962	15610
8963	15613
8964	15617
8965	15622
8966	15626
8967	15631
8968	15632
8969	15634
8970	15638
8971	15643
8972	15647
8973	15652
8974	15654
8975	15658
8976	15663
8977	15667
8978	15674
8979	15675
8980	15676
8981	15677
8982	15679
8983	15681
8984	15682
8985	15683
8986	15684
8987	15686
8988	15687
8989	15688
8990	15689
8991	15691
8992	15692
8993	15693
8994	15697
8995	15699
8996	15702
8997	15703
8998	15704
8999	15706
9000	15710
9001	15711
9002	15712
9003	15713
9004	15714
9005	15716
9006	15724
9007	15725
9008	15726
9009	15727
9010	15728
9011	15730
9012	15731
9013	15732
9014	15733
9015	15734
9016	15736
9017	15737
9018	15738
9019	15739
9020	15740
9021	15741
9022	15743
9023	15744
9024	15745
9025	15748
9026	15749
9027	15750
9028	15752
9029	15753
9030	15754
9031	15756
9032	15759
9033	15760
9034	15761
9035	15762
9036	15764
9037	15765
9038	15766
9039	15771
9040	15772
9041	15773
9042	15777
9043	15778
9044	15779
9045	15780
9046	15781
9047	15784
9048	15785
9049	15786
9050	15787
9051	15789
9052	15790
9053	15793
9054	15795
9055	15796
9056	15797
9057	15798
9058	15799
9059	15800
9060	15801
9061	15803
9062	15804
9063	15806
9064	15807
9065	15809
9066	15810
9067	15812
9068	15813
9069	15815
9070	15816
9071	15818
9072	15819
9073	15821
9074	15822
9075	15823
9076	15824
9077	15826
9078	15827
9079	15828
9080	15829
9081	15831
9082	15833
9083	15834
9084	15835
9085	15836
9086	15837
9087	15839
9088	15842
9089	15844
9090	15847
9091	15848
9092	15850
9093	15851
9094	15852
9095	15854
9096	15855
9097	15856
9098	15858
9099	15860
9100	15861
9101	15862
9102	15863
9103	15864
9104	15865
9105	15866
9106	15867
9107	15868
9108	15872
9109	15873
9110	15874
9111	15875
9112	15876
9113	15877
9114	15878
9115	15881
9116	15882
9117	15883
9118	15884
9119	15885
9120	15886
9121	15887
9122	15888
9123	15889
9124	15890
9125	15891
9126	15892
9127	15895
9128	15896
9129	15897
9130	15898
9131	15900
9132	15901
9133	15902
9134	15903
9135	15908
9136	15909
9137	15910
9138	15912
9139	15914
9140	15915
9141	15916
9142	15917
9143	15918
9144	15919
9145	15920
9146	15921
9147	15922
9148	15923
9149	15924
9150	15925
9151	15926
9152	15927
9153	15928
9154	15929
9155	15930
9156	15931
9157	15934
9158	15935
9159	15938
9160	15939
9161	15940
9162	15941
9163	15942
9164	15944
9165	15945
9166	15946
9167	15947
9168	15948
9169	15949
9170	15950
9171	15951
9172	15953
9173	15955
9174	15956
9175	15957
9176	15958
9177	15959
9178	15960
9179	15961
9180	15964
9181	15965
9182	15966
9183	15967
9184	15968
9185	15969
9186	15970
9187	15972
9188	15973
9189	15974
9190	15975
9191	15976
9192	15977
9193	15979
9194	15980
9195	15981
9196	15982
9197	15983
9198	15984
9199	15985
9200	15987
9201	15988
9202	15989
9203	15990
9204	15992
9205	15993
9206	15994
9207	15995
9208	15996
9209	15997
9210	16001
9211	16003
9212	16006
9213	16007
9214	16008
9215	16010
9216	16013
9217	16014
9218	16015
9219	16017
9220	16018
9221	16019
9222	16020
9223	16022
9224	16023
9225	16024
9226	16025
9227	16026
9228	16027
9229	16028
9230	16029
9231	16030
9232	16032
9233	16033
9234	16034
9235	16035
9236	16036
9237	16037
9238	16039
9239	16040
9240	16041
9241	16042
9242	16045
9243	16047
9244	16048
9245	16049
9246	16051
9247	16054
9248	16055
9249	16056
9250	16057
9251	16059
9252	16062
9253	16064
9254	16065
9255	16066
9256	16067
9257	16069
9258	16070
9259	16071
9260	16074
9261	16075
9262	16076
9263	16077
9264	16078
9265	16079
9266	16082
9267	16083
9268	16084
9269	16086
9270	16089
9271	16092
9272	16095
9273	16096
9274	16097
9275	16098
9276	16099
9277	16100
9278	16101
9279	16102
9280	16103
9281	16105
9282	16109
9283	16110
9284	16111
9285	16113
9286	16114
9287	16115
9288	16117
9289	16119
9290	16120
9291	16123
9292	16124
9293	16125
9294	16127
9295	16129
9296	16130
9297	16131
9298	16134
9299	16135
9300	16136
9301	16137
9302	16138
9303	16140
9304	16141
9305	16142
9306	16143
9307	16144
9308	16145
9309	16146
9310	16149
9311	16150
9312	16151
9313	16152
9314	16153
9315	16154
9316	16155
9317	16156
9318	16157
9319	16161
9320	16165
9321	16166
9322	16167
9323	16168
9324	16169
9325	16170
9326	16171
9327	16174
9328	16175
9329	16177
9330	16179
9331	16181
9332	16182
9333	16183
9334	16184
9335	16185
9336	16187
9337	16188
9338	16191
9339	16193
9340	16194
9341	16195
9342	16196
9343	16200
9344	16201
9345	16202
9346	16204
9347	16205
9348	16206
9349	16208
9350	16211
9351	16213
9352	16214
9353	16215
9354	16217
9355	16219
9356	16220
9357	16223
9358	16224
9359	16225
9360	16226
9361	16227
9362	16228
9363	16229
9364	16230
9365	16231
9366	16232
9367	16233
9368	16235
9369	16236
9370	16237
9371	16238
9372	16239
9373	16240
9374	16241
9375	16242
9376	16245
9377	16246
9378	16247
9379	16248
9380	16249
9381	16251
9382	16252
9383	16254
9384	16256
9385	16257
9386	16258
9387	16259
9388	16260
9389	16261
9390	16263
9391	16266
9392	16267
9393	16268
9394	16270
9395	16271
9396	16272
9397	16276
9398	16277
9399	16280
9400	16282
9401	16287
9402	16288
9403	16289
9404	16293
9405	16294
9406	16296
9407	16298
9408	16299
9409	16300
9410	16303
9411	16304
9412	16305
9413	16310
9414	16311
9415	16312
9416	16313
9417	16319
9418	16321
9419	16322
9420	16329
9421	16330
9422	16331
9423	16334
9424	16336
9425	16338
9426	16340
9427	16341
9428	16342
9429	16343
9430	16348
9431	16354
9432	16355
9433	16356
9434	16358
9435	16359
9436	16360
9437	16361
9438	16362
9439	16363
9440	16364
9441	16366
9442	16367
9443	16370
9444	16371
9445	16372
9446	16373
9447	16374
9448	16375
9449	16380
9450	16382
9451	16384
9452	16385
9453	16386
9454	16387
9455	16388
9456	16390
9457	16391
9458	16392
9459	16393
9460	16394
9461	16395
9462	16396
9463	16397
9464	16398
9465	16399
9466	16400
9467	16404
9468	16408
9469	16410
9470	16411
9471	16419
9472	16423
9473	16425
9474	16426
9475	16429
9476	16433
9477	16437
9478	16438
9479	16439
9480	16440
9481	16441
9482	16442
9483	16443
9484	16444
9485	16446
9486	16450
9487	16452
9488	16453
9489	16454
9490	16455
9491	16458
9492	16459
9493	16461
9494	16462
9495	16463
9496	16465
9497	16467
9498	16468
9499	16469
9500	16470
9501	16472
9502	16476
9503	16483
9504	16484
9505	16485
9506	16487
9507	16491
9508	16493
9509	16495
9510	16498
9511	16499
9512	16500
9513	16501
9514	16502
9515	16504
9516	16505
9517	16506
9518	16510
9519	16514
9520	16516
9521	16517
9522	16518
9523	16519
9524	16521
9525	16522
9526	16524
9527	16525
9528	16526
9529	16527
9530	16528
9531	16529
9532	16530
9533	16532
9534	16533
9535	16534
9536	16535
9537	16536
9538	16537
9539	16538
9540	16539
9541	16542
9542	16543
9543	16544
9544	16545
9545	16547
9546	16550
9547	16551
9548	16552
9549	16554
9550	16557
9551	16558
9552	16562
9553	16563
9554	16565
9555	16566
9556	16570
9557	16571
9558	16572
9559	16574
9560	16575
9561	16577
9562	16579
9563	16580
9564	16581
9565	16582
9566	16583
9567	16585
9568	16586
9569	16587
9570	16588
9571	16589
9572	16590
9573	16591
9574	16592
9575	16595
9576	16596
9577	16597
9578	16601
9579	16602
9580	16603
9581	16605
9582	16609
9583	16611
9584	16612
9585	16613
9586	16614
9587	16618
9588	16622
9589	16623
9590	16625
9591	16626
9592	16628
9593	16630
9594	16631
9595	16632
9596	16634
9597	16641
9598	16642
9599	16643
9600	16644
9601	16645
9602	16646
9603	16647
9604	16649
9605	16650
9606	16651
9607	16652
9608	16653
9609	16656
9610	16658
9611	16661
9612	16670
9613	16672
9614	16674
9615	16675
9616	16677
9617	16679
9618	16687
9619	16692
9620	16694
9621	16696
9622	16701
9623	16703
9624	16704
9625	16705
9626	16706
9627	16708
9628	16710
9629	16711
9630	16712
9631	16713
9632	16714
9633	16715
9634	16719
9635	16727
9636	16728
9637	16729
9638	16732
9639	16736
9640	16737
9641	16740
9642	16741
9643	16742
9644	16743
9645	16745
9646	16747
9647	16749
9648	16750
9649	16751
9650	16752
9651	16753
9652	16754
9653	16757
9654	16758
9655	16760
9656	16761
9657	16763
9658	16764
9659	16768
9660	16769
9661	16771
9662	16773
9663	16776
9664	16778
9665	16780
9666	16781
9667	16782
9668	16786
9669	16787
9670	16788
9671	16790
9672	16791
9673	16792
9674	16795
9675	16796
9676	16797
9677	16798
9678	16800
9679	16801
9680	16802
9681	16804
9682	16805
9683	16806
9684	16807
9685	16808
9686	16809
9687	16814
9688	16815
9689	16816
9690	16817
9691	16818
9692	16819
9693	16828
9694	16829
9695	16830
9696	16831
9697	16832
9698	16833
9699	16834
9700	16836
9701	16840
9702	16841
9703	16842
9704	16844
9705	16845
9706	16850
9707	16852
9708	16855
9709	16856
9710	16858
9711	16860
9712	16861
9713	16862
9714	16863
9715	16865
9716	16869
9717	16870
9718	16871
9719	16872
9720	16873
9721	16876
9722	16877
9723	16883
9724	16886
9725	16887
9726	16888
9727	16890
9728	16896
9729	16897
9730	16898
9731	16899
9732	16905
9733	16906
9734	16907
9735	16908
9736	16912
9737	16915
9738	16920
9739	16929
9740	16932
9741	16934
9742	16935
9743	16936
9744	16937
9745	16939
9746	16940
9747	16942
9748	16944
9749	16946
9750	16947
9751	16950
9752	16951
9753	16953
9754	16956
9755	16958
9756	16959
9757	16960
9758	16961
9759	16963
9760	16964
9761	16965
9762	16966
9763	16968
9764	16969
9765	16970
9766	16973
9767	16975
9768	16976
9769	16977
9770	16978
9771	16979
9772	16980
9773	16987
9774	16993
9775	16994
9776	16996
9777	16998
9778	17000
9779	17007
9780	17022
9781	17023
9782	17024
9783	17025
9784	17026
9785	17031
9786	17032
9787	17037
9788	17040
9789	17042
9790	17045
9791	17048
9792	17050
9793	17055
9794	17056
9795	17057
9796	17058
9797	17059
9798	17060
9799	17061
9800	17063
9801	17073
9802	17077
9803	17079
9804	17083
9805	17090
9806	17091
9807	17094
9808	17097
9809	17099
9810	17101
9811	17102
9812	17103
9813	17109
9814	17113
9815	17115
9816	17132
9817	17133
9818	17134
9819	17139
9820	17140
9821	17149
9822	17155
9823	17156
9824	17157
9825	17160
9826	17161
9827	17165
9828	17166
9829	17167
9830	17168
9831	17169
9832	17171
9833	17178
9834	17179
9835	17182
9836	17185
9837	17187
9838	17188
9839	17191
9840	17192
9841	17193
9842	17194
9843	17195
9844	17196
9845	17201
9846	17207
9847	17208
9848	17209
9849	17210
9850	17211
9851	17214
9852	17218
9853	17219
9854	17220
9855	17224
9856	17225
9857	17226
9858	17231
9859	17235
9860	17244
9861	17245
9862	17246
9863	17248
9864	17249
9865	17252
9866	17254
9867	17258
9868	17259
9869	17260
9870	17261
9871	17266
9872	17267
9873	17272
9874	17278
9875	17282
9876	17286
9877	17288
9878	17289
9879	17290
9880	17292
9881	17294
9882	17298
9883	17300
9884	17306
9885	17307
9886	17313
9887	17316
9888	17317
9889	17318
9890	17319
9891	17320
9892	17323
9893	17325
9894	17326
9895	17327
9896	17329
9897	17331
9898	17336
9899	17338
9900	17342
9901	17345
9902	17348
9903	17349
9904	17360
9905	17370
9906	17373
9907	17378
9908	17380
9909	17393
9910	17394
9911	17395
9912	17396
9913	17398
9914	17399
9915	17400
9916	17401
9917	17403
9918	17404
9919	17407
9920	17411
9921	17412
9922	17413
9923	17416
9924	17417
9925	17419
9926	17420
9927	17422
9928	17423
9929	17425
9930	17428
9931	17429
9932	17430
9933	17431
9934	17432
9935	17433
9936	17434
9937	17435
9938	17436
9939	17443
9940	17447
9941	17448
9942	17449
9943	17455
9944	17459
9945	17460
9946	17461
9947	17462
9948	17464
9949	17471
9950	17472
9951	17473
9952	17475
9953	17476
9954	17477
9955	17482
9956	17487
9957	17488
9958	17489
9959	17491
9960	17492
9961	17495
9962	17497
9963	17502
9964	17511
9965	17513
9966	17515
9967	17516
9968	17520
9969	17523
9970	17525
9971	17528
9972	17530
9973	17532
9974	17533
9975	17536
9976	17537
9977	17538
9978	17539
9979	17540
9980	17541
9981	17542
9982	17544
9983	17545
9984	17546
9985	17547
9986	17549
9987	17550
9988	17553
9989	17554
9990	17555
9991	17562
9992	17566
9993	17570
9994	17575
9995	17577
9996	17581
9997	17584
9998	17586
9999	17588
10000	17590
10001	17593
10002	17595
10003	17603
10004	17604
10005	17605
10006	17606
10007	17607
10008	17609
10009	17610
10010	17613
10011	17614
10012	17615
10013	17616
10014	17618
10015	17620
10016	17622
10017	17624
10018	17625
10019	17626
10020	17627
10021	17628
10022	17632
10023	17634
10024	17635
10025	17636
10026	17637
10027	17638
10028	17639
10029	17640
10030	17642
10031	17643
10032	17644
10033	17645
10034	17646
10035	17647
10036	17648
10037	17650
10038	17651
10039	17652
10040	17657
10041	17658
10042	17659
10043	17660
10044	17661
10045	17662
10046	17664
10047	17665
10048	17667
10049	17668
10050	17669
10051	17670
10052	17671
10053	17672
10054	17673
10055	17674
10056	17678
10057	17679
10058	17681
10059	17682
10060	17683
10061	17684
10062	17685
10063	17686
10064	17688
10065	17689
10066	17690
10067	17692
10068	17695
10069	17696
10070	17697
10071	17698
10072	17700
10073	17702
10074	17703
10075	17704
10076	17707
10077	17708
10078	17709
10079	17710
10080	17711
10081	17712
10082	17713
10083	17714
10084	17715
10085	17716
10086	17717
10087	17719
10088	17722
10089	17723
10090	17724
10091	17725
10092	17726
10093	17728
10094	17729
10095	17730
10096	17731
10097	17732
10098	17733
10099	17734
10100	17735
10101	17736
10102	17737
10103	17738
10104	17740
10105	17741
10106	17742
10107	17743
10108	17744
10109	17745
10110	17747
10111	17749
10112	17750
10113	17751
10114	17755
10115	17756
10116	17758
10117	17762
10118	17763
10119	17764
10120	17765
10121	17766
10122	17767
10123	17768
10124	17769
10125	17770
10126	17772
10127	17773
10128	17774
10129	17775
10130	17776
10131	17777
10132	17779
10133	17782
10134	17783
10135	17784
10136	17785
10137	17786
10138	17789
10139	17792
10140	17793
10141	17794
10142	17795
10143	17796
10144	17797
10145	17798
10146	17803
10147	17804
10148	17805
10149	17807
10150	17809
10151	17810
10152	17811
10153	17812
10154	17813
10155	17814
10156	17815
10157	17816
10158	17819
10159	17820
10160	17821
10161	17822
10162	17823
10163	17824
10164	17827
10165	17829
10166	17830
10167	17831
10168	17836
10169	17839
10170	17840
10171	17841
10172	17843
10173	17845
10174	17846
10175	17847
10176	17849
10177	17852
10178	17853
10179	17854
10180	17855
10181	17856
10182	17857
10183	17858
10184	17859
10185	17860
10186	17861
10187	17862
10188	17863
10189	17864
10190	17865
10191	17869
10192	17871
10193	17872
10194	17873
10195	17874
10196	17875
10197	17876
10198	17877
10199	17878
10200	17879
10201	17881
10202	17882
10203	17884
10204	17887
10205	17888
10206	17890
10207	17893
10208	17894
10209	17895
10210	17896
10211	17897
10212	17898
10213	17899
10214	17900
10215	17901
10216	17902
10217	17903
10218	17904
10219	17905
10220	17906
10221	17908
10222	17909
10223	17910
10224	17911
10225	17912
10226	17913
10227	17914
10228	17915
10229	17917
10230	17919
10231	17920
10232	17923
10233	17927
10234	17928
10235	17930
10236	17931
10237	17933
10238	17934
10239	17935
10240	17937
10241	17938
10242	17940
10243	17941
10244	17944
10245	17946
10246	17947
10247	17948
10248	17950
10249	17951
10250	17953
10251	17955
10252	17956
10253	17957
10254	17958
10255	17959
10256	17960
10257	17961
10258	17962
10259	17963
10260	17964
10261	17965
10262	17967
10263	17968
10264	17969
10265	17971
10266	17972
10267	17973
10268	17974
10269	17975
10270	17976
10271	17978
10272	17980
10273	17981
10274	17984
10275	17985
10276	17986
10277	17987
10278	17988
10279	17989
10280	17990
10281	17991
10282	17992
10283	17993
10284	17994
10285	17996
10286	17997
10287	17998
10288	17999
10289	18002
10290	18003
10291	18004
10292	18005
10293	18007
10294	18011
10295	18012
10296	18013
10297	18016
10298	18018
10299	18019
10300	18020
10301	18021
10302	18022
10303	18027
10304	18029
10305	18030
10306	18033
10307	18034
10308	18035
10309	18037
10310	18039
10311	18040
10312	18041
10313	18043
10314	18046
10315	18047
10316	18050
10317	18054
10318	18055
10319	18057
10320	18059
10321	18060
10322	18063
10323	18064
10324	18065
10325	18066
10326	18067
10327	18068
10328	18069
10329	18071
10330	18073
10331	18074
10332	18075
10333	18077
10334	18078
10335	18080
10336	18081
10337	18088
10338	18093
10339	18094
10340	18096
10341	18097
10342	18100
10343	18102
10344	18103
10345	18104
10346	18105
10347	18107
10348	18108
10349	18110
10350	18111
10351	18112
10352	18113
10353	18115
10354	18116
10355	18117
10356	18120
10357	18121
10358	18122
10359	18123
10360	18124
10361	18125
10362	18126
10363	18127
10364	18128
10365	18131
10366	18133
10367	18134
10368	18135
10369	18137
10370	18138
10371	18139
10372	18140
10373	18144
10374	18148
10375	18151
10376	18152
10377	18153
10378	18156
10379	18159
10380	18162
10381	18163
10382	18164
10383	18165
10384	18166
10385	18167
10386	18168
10387	18169
10388	18172
10389	18174
10390	18175
10391	18178
10392	18183
10393	18185
10394	18186
10395	18187
10396	18188
10397	18189
10398	18190
10399	18191
10400	18192
10401	18193
10402	18194
10403	18197
10404	18198
10405	18199
10406	18200
10407	18203
10408	18204
10409	18205
10410	18206
10411	18207
10412	18210
10413	18211
10414	18212
10415	18213
10416	18214
10417	18216
10418	18217
10419	18220
10420	18224
10421	18226
10422	18230
10423	18232
10424	18233
10425	18236
10426	18237
10427	18239
10428	18240
10429	18243
10430	18245
10431	18246
10432	18248
10433	18249
10434	18251
10435	18252
10436	18254
10437	18255
10438	18256
10439	18257
10440	18259
10441	18260
10442	18262
10443	18263
10444	18266
10445	18267
10446	18270
10447	18271
10448	18273
10449	18275
10450	18277
10451	18278
10452	18279
10453	18280
10454	18285
10455	18290
10456	18291
10457	18293
10458	18296
10459	18297
10460	18299
10461	18300
10462	18303
10463	18306
10464	18307
10465	18309
10466	18311
10467	18312
10468	18313
10469	18314
10470	18315
10471	18317
10472	18318
10473	18320
10474	18323
10475	18326
10476	18327
10477	18328
10478	18329
10479	18330
10480	18331
10481	18332
10482	18334
10483	18335
10484	18338
10485	18339
10486	18340
10487	18341
10488	18342
10489	18343
10490	18346
10491	18350
10492	18352
10493	18353
10494	18356
10495	18357
10496	18361
10497	18365
10498	18366
10499	18368
10500	18369
10501	18370
10502	18371
10503	18372
10504	18375
10505	18376
10506	18377
10507	18379
10508	18381
10509	18382
10510	18383
10511	18391
10512	18392
10513	18393
10514	18395
10515	18396
10516	18397
10517	18399
10518	18400
10519	18405
10520	18415
10521	18416
10522	18417
10523	18419
10524	18420
10525	18422
10526	18425
10527	18431
10528	18432
10529	18436
10530	18438
10531	18444
10532	18445
10533	18446
10534	18448
10535	18452
10536	18453
10537	18458
10538	18459
10539	18464
10540	18467
10541	18472
10542	18473
10543	18474
10544	18477
10545	18480
10546	18481
10547	18485
10548	18492
10549	18501
10550	18502
10551	18503
10552	18505
10553	18506
10554	18514
10555	18518
10556	18519
10557	18520
10558	18521
10559	18523
10560	18526
10561	18527
10562	18530
10563	18537
10564	18538
10565	18540
10566	18546
10567	18551
10568	18557
10569	18563
10570	18565
10571	18567
10572	18569
10573	18571
10574	18572
10575	18583
10576	18585
10577	18586
10578	18587
10579	18588
10580	18592
10581	18594
10582	18596
10583	18597
10584	18600
10585	18605
10586	18609
10587	18611
10588	18612
10589	18617
10590	18618
10591	18619
10592	18620
10593	18621
10594	18624
10595	18625
10596	18626
10597	18628
10598	18629
10599	18630
10600	18631
10601	18632
10602	18635
10603	18636
10604	18637
10605	18639
10606	18641
10607	18644
10608	18651
10609	18652
10610	18655
10611	18660
10612	18661
10613	18662
10614	18664
10615	18666
10616	18671
10617	18672
10618	18674
10619	18675
10620	18676
10621	18677
10622	18678
10623	18684
10624	18685
10625	18698
10626	18700
10627	18701
10628	18705
10629	18709
10630	18710
10631	18711
10632	18712
10633	18721
10634	18723
10635	18724
10636	18732
10637	18734
10638	18736
10639	18737
10640	18738
10641	18740
10642	18741
10643	18747
10644	18752
10645	18753
10646	18754
10647	18756
10648	18758
10649	18761
10650	18762
10651	18764
10652	18770
10653	18775
10654	18776
10655	18779
10656	18783
10657	18790
10658	18794
10659	18798
10660	18799
10661	18802
10662	18804
10663	18806
10664	18808
10665	18810
10666	18811
10667	18812
10668	18814
10669	18815
10670	18816
10671	18819
10672	18824
10673	18826
10674	18829
10675	18831
10676	18833
10677	18834
10678	18836
10679	18838
10680	18840
10681	18847
10682	18848
10683	18849
10684	18858
10685	18859
10686	18860
10687	18861
10688	18863
10689	18870
10690	18871
10691	18872
10692	18873
10693	18875
10694	18876
10695	18877
10696	18878
10697	18879
10698	18881
10699	18885
10700	18886
10701	18888
10702	18893
10703	18895
10704	18896
10705	18897
10706	18898
10707	18905
10708	18914
10709	18916
10710	18917
10711	18918
10712	18920
10713	18922
10714	18923
10715	18924
10716	18926
10717	18930
10718	18931
10719	18936
10720	18940
10721	18944
10722	18945
10723	18948
10724	18949
10725	18956
10726	18957
10727	18958
10728	18959
10729	18969
10730	18970
10731	18975
10732	18982
10733	18983
10734	18987
10735	18988
10736	18989
10737	18990
10738	18994
10739	18999
10740	19004
10741	19008
10742	19009
10743	19012
10744	19013
10745	19014
10746	19015
10747	19017
10748	19021
10749	19028
10750	19029
10751	19031
10752	19036
10753	19037
10754	19038
10755	19042
10756	19044
10757	19048
10758	19050
10759	19051
10760	19052
10761	19053
10762	19054
10763	19055
10764	19056
10765	19064
10766	19066
10767	19067
10768	19073
10769	19074
10770	19075
10771	19077
10772	19080
10773	19087
10774	19088
10775	19089
10776	19090
10777	19097
10778	19102
10779	19104
10780	19109
10781	19128
10782	19129
10783	19135
10784	19149
10785	19151
10786	19157
10787	19164
10788	19169
10789	19170
10790	19175
10791	19179
10792	19181
10793	19183
10794	19185
10795	19187
10796	19188
10797	19189
10798	19192
10799	19193
10800	19194
10801	19197
10802	19198
10803	19200
10804	19201
10805	19202
10806	19203
10807	19204
10808	19205
10809	19206
10810	19207
10811	19208
10812	19210
10813	19213
10814	19214
10815	19215
10816	19216
10817	19217
10818	19218
10819	19219
10820	19220
10821	19221
10822	19223
10823	19224
10824	19225
10825	19226
10826	19228
10827	19229
10828	19231
10829	19232
10830	19234
10831	19237
10832	19238
10833	19239
10834	19241
10835	19242
10836	19244
10837	19245
10838	19246
10839	19251
10840	19252
10841	19253
10842	19255
10843	19256
10844	19257
10845	19258
10846	19259
10847	19260
10848	19261
10849	19262
10850	19266
10851	19267
10852	19268
10853	19269
10854	19270
10855	19271
10856	19273
10857	19274
10858	19276
10859	19277
10860	19278
10861	19279
10862	19280
10863	19281
10864	19282
10865	19283
10866	19288
10867	19289
10868	19291
10869	19292
10870	19293
10871	19294
10872	19296
10873	19297
10874	19298
10875	19299
10876	19300
10877	19302
10878	19303
10879	19304
10880	19305
10881	19306
10882	19308
10883	19309
10884	19310
10885	19311
10886	19312
10887	19313
10888	19315
10889	19316
10890	19317
10891	19318
10892	19319
10893	19320
10894	19322
10895	19326
10896	19327
10897	19328
10898	19330
10899	19331
10900	19333
10901	19334
10902	19335
10903	19336
10904	19338
10905	19339
10906	19340
10907	19345
10908	19350
10909	19353
10910	19355
10911	19356
10912	19360
10913	19361
10914	19364
10915	19366
10916	19368
10917	19369
10918	19370
10919	19371
10920	19374
10921	19376
10922	19381
10923	19386
10924	19388
10925	19389
10926	19396
10927	19399
10928	19400
10929	19402
10930	19403
10931	19404
10932	19408
10933	19409
10934	19412
10935	19413
10936	19417
10937	19419
10938	19420
10939	19427
10940	19428
10941	19432
10942	19437
10943	19438
10944	19440
10945	19443
10946	19444
10947	19445
10948	19448
10949	19450
10950	19457
10951	19458
10952	19460
10953	19461
10954	19466
10955	19472
10956	19486
10957	19488
10958	19491
10959	19494
10960	19498
10961	19501
10962	19502
10963	19504
10964	19505
10965	19506
10966	19507
10967	19514
10968	19516
10969	19517
10970	19525
10971	19526
10972	19527
10973	19534
10974	19535
10975	19543
10976	19545
10977	19547
10978	19548
10979	19553
10980	19565
10981	19571
10982	19572
10983	19576
10984	19577
10985	19580
10986	19584
10987	19585
10988	19586
10989	19588
10990	19589
10991	19593
10992	19605
10993	19606
10994	19610
10995	19611
10996	19612
10997	19613
10998	19618
10999	19620
11000	19623
11001	19624
11002	19626
11003	19631
11004	19632
11005	19639
11006	19643
11007	19644
11008	19647
11009	19651
11010	19658
11011	19661
11012	19663
11013	19664
11014	19665
11015	19668
11016	19669
11017	19686
11018	19687
11019	19692
11020	19695
11021	19697
11022	19701
11023	19703
11024	19704
11025	19711
11026	19719
11027	19720
11028	19722
11029	19723
11030	19732
11031	19733
11032	19737
11033	19738
11034	19752
11035	19753
11036	19762
11037	19765
11038	19766
11039	19773
11040	19774
11041	19780
11042	19785
11043	19787
11044	19802
11045	19804
11046	19811
11047	19812
11048	19817
11049	19819
11050	19821
11051	19825
11052	19836
11053	19840
11054	19841
11055	19845
11056	19848
11057	19852
11058	19853
11059	19854
11060	19857
11061	19858
11062	19860
11063	19861
11064	19866
11065	19867
11066	19868
11067	19873
11068	19875
11069	19877
11070	19882
11071	19885
11072	19890
11073	19891
11074	19892
11075	19893
11076	19894
11077	19906
11078	19910
11079	19912
11080	19914
11081	19916
11082	19917
11083	19919
11084	19920
11085	19921
11086	19924
11087	19926
11088	19928
11089	19929
11090	19931
11091	19932
11092	19935
11093	19942
11094	19946
11095	19947
11096	19948
11097	19954
11098	19956
11099	19959
11100	19960
11101	19968
11102	19971
11103	19973
11104	19974
11105	19977
11106	19978
11107	19981
11108	19987
11109	19988
11110	19989
11111	19990
11112	19992
11113	20001
11114	20002
11115	20003
11116	20006
11117	20008
11118	20015
11119	20023
11120	20024
11121	20025
11122	20026
11123	20027
11124	20028
11125	20037
11126	20039
11127	20041
11128	20044
11129	20049
11130	20052
11131	20053
11132	20055
11133	20079
11134	20080
11135	20081
11136	20082
11137	20084
11138	20085
11139	20089
11140	20091
11141	20092
11142	20100
11143	20102
11144	20104
11145	20105
11146	20110
11147	20111
11148	20116
11149	20117
11150	20118
11151	20120
11152	20123
11153	20129
11154	20131
11155	20132
11156	20137
11157	20141
11158	20143
11159	20148
11160	20151
11161	20162
11162	20177
11163	20180
11164	20189
11165	20198
11166	20199
11167	20200
11168	20201
11169	20219
11170	20220
11171	20222
11172	20230
11173	20235
11174	20236
11175	20240
11176	20244
11177	20246
11178	20247
11179	20248
11180	20249
11181	20251
11182	20252
11183	20253
11184	20254
11185	20255
11186	20257
11187	20258
11188	20259
11189	20261
11190	20262
11191	20263
11192	20266
11193	20267
11194	20268
11195	20270
11196	20271
11197	20272
11198	20274
11199	20276
11200	20277
11201	20278
11202	20279
11203	20280
11204	20281
11205	20282
11206	20283
11207	20284
11208	20287
11209	20289
11210	20291
11211	20292
11212	20295
11213	20297
11214	20298
11215	20299
11216	20300
11217	20302
11218	20303
11219	20304
11220	20306
11221	20307
11222	20308
11223	20313
11224	20315
11225	20317
11226	20330
11227	20335
11228	20338
11229	20340
11230	20341
11231	20343
11232	20347
11233	20355
11234	20356
11235	20359
11236	20360
11237	20362
11238	20376
11239	20378
11240	20383
11241	20388
11242	20393
11243	20396
11244	20397
11245	20401
11246	20402
11247	20406
11248	20410
11249	20411
11250	20425
11251	20428
11252	20429
11253	20432
11254	20433
11255	20444
11256	20452
11257	20457
11258	20459
11259	20461
11260	20462
11261	20477
11262	20478
11263	20482
11264	20491
11265	20501
11266	20502
11267	20508
11268	20509
11269	20515
11270	20523
11271	20524
11272	20527
11273	20528
11274	20543
11275	20546
11276	20549
11277	20550
11278	20557
11279	20558
11280	20561
11281	20564
11282	20565
11283	20567
11284	20569
11285	20571
11286	20577
11287	20578
11288	20585
11289	20598
11290	20599
11291	20602
11292	20606
11293	20607
11294	20609
11295	20614
11296	20616
11297	20621
11298	20624
11299	20628
11300	20629
11301	20636
11302	20637
11303	20642
11304	20643
11305	20646
11306	20649
11307	20652
11308	20661
11309	20665
11310	20668
11311	20670
11312	20671
11313	20674
11314	20676
11315	20690
11316	20691
11317	20696
11318	20704
11319	20705
11320	20707
11321	20716
11322	20720
11323	20725
11324	20730
11325	20737
11326	20738
11327	20742
11328	20743
11329	20744
11330	20745
11331	20753
11332	20764
11333	20770
11334	20775
11335	20786
11336	20787
11337	20788
11338	20789
11339	20791
11340	20793
11341	20801
11342	20803
11343	20804
11344	20809
11345	20810
11346	20820
11347	20822
11348	20826
11349	20831
11350	20833
11351	20834
11352	20835
11353	20836
11354	20837
11355	20839
11356	20840
11357	20842
11358	20843
11359	20845
11360	20862
11361	20865
11362	20872
11363	20873
11364	20875
11365	20887
11366	20889
11367	20891
11368	20892
11369	20900
11370	20902
11371	20909
11372	20922
11373	20933
11374	20934
11375	20935
11376	20943
11377	20947
11378	20953
11379	20954
11380	20955
11381	20957
11382	20958
11383	20964
11384	20967
11385	20968
11386	20970
11387	20974
11388	20992
11389	21004
11390	21009
11391	21021
11392	21024
11393	21040
11394	21044
11395	21047
11396	21050
11397	21061
11398	21062
11399	21067
11400	21071
11401	21075
11402	21082
11403	21090
11404	21091
11405	21092
11406	21094
11407	21096
11408	21097
11409	21099
11410	21100
11411	21101
11412	21102
11413	21103
11414	21105
11415	21106
11416	21107
11417	21108
11418	21109
11419	21110
11420	21111
11421	21113
11422	21114
11423	21115
11424	21116
11425	21117
11426	21118
11427	21119
11428	21123
11429	21124
11430	21142
11431	21148
11432	21149
11433	21150
11434	21161
11435	21163
11436	21164
11437	21173
11438	21177
11439	21181
11440	21190
11441	21208
11442	21236
11443	21242
11444	21253
11445	21258
11446	21259
11447	21264
11448	21267
11449	21276
11450	21284
11451	21286
11452	21301
11453	21306
11454	21313
11455	21325
11456	21333
11457	21340
11458	21341
11459	21342
11460	21343
11461	21349
11462	21356
11463	21359
11464	21361
11465	21363
11466	21385
11467	21389
11468	21391
11469	21393
11470	21394
11471	21400
11472	21404
11473	21407
11474	21425
11475	21428
11476	21430
11477	21431
11478	21444
11479	21448
11480	21450
11481	21456
11482	21480
11483	21489
11484	21494
11485	21506
11486	21514
11487	21518
11488	21522
11489	21530
11490	21533
11491	21535
